[Header]
Application Name	LCsolution
Version	1.25
Data File Name	C:\LabSolutions\Data\Caffeine\20161014\sample-1.lcd
Output Date	2019/1/7
Output Time	下午 06:33:11

[File Information]
Type	Data File
Generated	2016/10/14 下午 11:03:26
Generated by	Admin
Modified	2016/10/14 下午 11:09:54
Modified by	Admin

[Sample Information]
Operator Name	Admin
Acquired	2016/10/14 下午 11:03:50
Sample Type	0:Unknown
Level	1
Sample Name	咖啡因-樣品20161014
Sample ID	
ISTD Amount 1	1
ISTD Amount 2	1
ISTD Amount 3	1
ISTD Amount 4	1
ISTD Amount 5	1
ISTD Amount 6	1
ISTD Amount 7	1
ISTD Amount 8	1
ISTD Amount 9	1
ISTD Amount 10	1
ISTD Amount 11	1
ISTD Amount 12	1
ISTD Amount 13	1
ISTD Amount 14	1
ISTD Amount 15	1
ISTD Amount 16	1
ISTD Amount 17	1
ISTD Amount 18	1
ISTD Amount 19	1
ISTD Amount 20	1
ISTD Amount 21	1
ISTD Amount 22	1
ISTD Amount 23	1
ISTD Amount 24	1
ISTD Amount 25	1
ISTD Amount 26	1
ISTD Amount 27	1
ISTD Amount 28	1
ISTD Amount 29	1
ISTD Amount 30	1
ISTD Amount 31	1
ISTD Amount 32	1
Sample Amount	1
Dilution Factor	1
Vial#	
Injection Volume	10

[Original Files]
Data File	C:\LabSolutions\Data\Caffeine\20161014\sample-1.lcd
Method File	C:\LabSolutions\Method\Caffeine咖啡因\NEW-Caffeine 280nm  SB-C18 5um 4.6x250mm -10ul-1.0mL  A(40)-H2O  D(60)-MeOH.lcm
Batch File	
Report Format File	C:\LabSolutions\LCsolution\System\Default.lcr
Tuning File	

[File Description]


[Configuration]
# of Detectors	1
Detector ID	Detector A
Detector Name	Detector A
# of Channels	1

[Peak Table(Detector A-Ch1)]
# of Peaks	3
Peak#	R.Time	I.Time	F.Time	Area	Height	A/H	Conc.	Mark	ID#	Name	k'	Plate #	Plate Ht.	Tailing	Resolution	Sep.Factor	Conc. %	Norm Conc.
1	1.153	0.992	1.408	737520	71665	10.2910	0.0000	   			0.000	343	728.473	0.000	0.000	0.000	0.0000	0.0000
2	1.481	1.408	2.467	799343	158290	5.0500	0.0000	SV 			0.285	1814	137.824	0.000	1.694	0.000	0.0000	0.0000
3	4.446	3.783	5.425	4378116	243634	17.9700	0.0000	   			2.858	1537	162.606	1.000	10.006	10.025	0.0000	0.0000

[Peak Table(PDA-Ch1)]
# of Peaks	0

[Compound Results(Detector A)]
# of IDs	0

[Compound Results(PDA)]
# of IDs	0

[Group Results(Detector A)]
# of Groups	0

[Group Results(PDA)]
# of Groups	0

[LC Chromatogram(Detector A-Ch1)]
Interval(msec)	500
# of Points	721
Start Time(min)	0.000
End Time(min)	6.000
Intensity Units	mV
Intensity Multiplier	0.001
Wavelength(nm)	280
R.Time (min)	Intensity
0.00000	4929
0.00833	4929
0.01667	-8
0.02500	-18
0.03333	-26
0.04167	-36
0.05000	-46
0.05833	-55
0.06667	-68
0.07500	-80
0.08333	-89
0.09167	-101
0.10000	-114
0.10833	-126
0.11667	-136
0.12500	-146
0.13333	-156
0.14167	-165
0.15000	-174
0.15833	-181
0.16667	-186
0.17500	-189
0.18333	-189
0.19167	-187
0.20000	-186
0.20833	-186
0.21667	-186
0.22500	-185
0.23333	-184
0.24167	-183
0.25000	-181
0.25833	-180
0.26667	-179
0.27500	-179
0.28333	-179
0.29167	-181
0.30000	-184
0.30833	-186
0.31667	-193
0.32500	-205
0.33333	-220
0.34167	-238
0.35000	-259
0.35833	-284
0.36667	-312
0.37500	-341
0.38333	-372
0.39167	-403
0.40000	-436
0.40833	-473
0.41667	-513
0.42500	-555
0.43333	-598
0.44167	-643
0.45000	-688
0.45833	-734
0.46667	-779
0.47500	-823
0.48333	-867
0.49167	-911
0.50000	-955
0.50833	-998
0.51667	-1037
0.52500	-1076
0.53333	-1115
0.54167	-1153
0.55000	-1189
0.55833	-1225
0.56667	-1259
0.57500	-1291
0.58333	-1323
0.59167	-1354
0.60000	-1384
0.60833	-1413
0.61667	-1440
0.62500	-1465
0.63333	-1489
0.64167	-1513
0.65000	-1536
0.65833	-1558
0.66667	-1579
0.67500	-1600
0.68333	-1620
0.69167	-1640
0.70000	-1660
0.70833	-1681
0.71667	-1700
0.72500	-1720
0.73333	-1745
0.74167	-1783
0.75000	-1840
0.75833	-1920
0.76667	-2033
0.77500	-2183
0.78333	-2361
0.79167	-2553
0.80000	-2749
0.80833	-2931
0.81667	-3089
0.82500	-3208
0.83333	-3280
0.84167	-3301
0.85000	-3278
0.85833	-3221
0.86667	-3147
0.87500	-3069
0.88333	-3000
0.89167	-2946
0.90000	-2910
0.90833	-2894
0.91667	-2903
0.92500	-2937
0.93333	-2995
0.94167	-3077
0.95000	-3179
0.95833	-3292
0.96667	-3406
0.97500	-3509
0.98333	-3587
0.99167	-3627
1.00000	-3613
1.00833	-3528
1.01667	-3357
1.02500	-3093
1.03333	-2732
1.04167	-2235
1.05000	-1461
1.05833	-79
1.06667	2434
1.07500	6658
1.08333	12936
1.09167	21097
1.10000	30421
1.10833	39902
1.11667	48596
1.12500	55890
1.13333	61511
1.14167	65395
1.15000	67554
1.15833	68026
1.16667	66928
1.17500	64493
1.18333	61048
1.19167	56955
1.20000	52544
1.20833	48068
1.21667	43711
1.22500	39603
1.23333	35837
1.24167	32483
1.25000	29587
1.25833	27191
1.26667	25333
1.27500	23978
1.28333	22969
1.29167	22068
1.30000	21059
1.30833	19820
1.31667	18345
1.32500	16717
1.33333	15053
1.34167	13469
1.35000	12058
1.35833	10874
1.36667	9933
1.37500	9225
1.38333	8718
1.39167	8372
1.40000	8151
1.40833	8037
1.41667	8056
1.42500	8421
1.43333	11238
1.44167	24759
1.45000	53628
1.45833	90127
1.46667	123159
1.47500	145526
1.48333	154629
1.49167	151232
1.50000	138307
1.50833	119750
1.51667	99222
1.52500	79411
1.53333	61851
1.54167	47139
1.55000	35276
1.55833	25947
1.56667	18734
1.57500	13235
1.58333	9090
1.59167	6000
1.60000	3718
1.60833	2045
1.61667	828
1.62500	-50
1.63333	-677
1.64167	-1122
1.65000	-1437
1.65833	-1660
1.66667	-1817
1.67500	-1929
1.68333	-2008
1.69167	-2065
1.70000	-2105
1.70833	-2134
1.71667	-2154
1.72500	-2165
1.73333	-2171
1.74167	-2172
1.75000	-2173
1.75833	-2175
1.76667	-2181
1.77500	-2192
1.78333	-2211
1.79167	-2238
1.80000	-2276
1.80833	-2323
1.81667	-2375
1.82500	-2432
1.83333	-2492
1.84167	-2551
1.85000	-2607
1.85833	-2661
1.86667	-2710
1.87500	-2755
1.88333	-2797
1.89167	-2832
1.90000	-2863
1.90833	-2891
1.91667	-2917
1.92500	-2941
1.93333	-2959
1.94167	-2976
1.95000	-2995
1.95833	-3014
1.96667	-3035
1.97500	-3057
1.98333	-3077
1.99167	-3097
2.00000	-3117
2.00833	-3134
2.01667	-3151
2.02500	-3168
2.03333	-3185
2.04167	-3200
2.05000	-3213
2.05833	-3225
2.06667	-3236
2.07500	-3242
2.08333	-3245
2.09167	-3244
2.10000	-3240
2.10833	-3234
2.11667	-3226
2.12500	-3216
2.13333	-3204
2.14167	-3193
2.15000	-3182
2.15833	-3172
2.16667	-3162
2.17500	-3152
2.18333	-3145
2.19167	-3140
2.20000	-3136
2.20833	-3134
2.21667	-3134
2.22500	-3137
2.23333	-3142
2.24167	-3153
2.25000	-3168
2.25833	-3186
2.26667	-3208
2.27500	-3234
2.28333	-3260
2.29167	-3285
2.30000	-3309
2.30833	-3332
2.31667	-3356
2.32500	-3381
2.33333	-3407
2.34167	-3432
2.35000	-3459
2.35833	-3489
2.36667	-3523
2.37500	-3556
2.38333	-3589
2.39167	-3620
2.40000	-3647
2.40833	-3670
2.41667	-3688
2.42500	-3703
2.43333	-3714
2.44167	-3721
2.45000	-3725
2.45833	-3728
2.46667	-3729
2.47500	-3727
2.48333	-3722
2.49167	-3717
2.50000	-3710
2.50833	-3704
2.51667	-3698
2.52500	-3692
2.53333	-3688
2.54167	-3685
2.55000	-3682
2.55833	-3680
2.56667	-3678
2.57500	-3678
2.58333	-3679
2.59167	-3680
2.60000	-3681
2.60833	-3682
2.61667	-3683
2.62500	-3682
2.63333	-3680
2.64167	-3677
2.65000	-3674
2.65833	-3669
2.66667	-3664
2.67500	-3656
2.68333	-3647
2.69167	-3634
2.70000	-3621
2.70833	-3606
2.71667	-3590
2.72500	-3572
2.73333	-3552
2.74167	-3532
2.75000	-3509
2.75833	-3485
2.76667	-3460
2.77500	-3434
2.78333	-3410
2.79167	-3387
2.80000	-3369
2.80833	-3354
2.81667	-3345
2.82500	-3339
2.83333	-3336
2.84167	-3335
2.85000	-3337
2.85833	-3339
2.86667	-3342
2.87500	-3346
2.88333	-3349
2.89167	-3350
2.90000	-3345
2.90833	-3334
2.91667	-3318
2.92500	-3297
2.93333	-3270
2.94167	-3239
2.95000	-3210
2.95833	-3183
2.96667	-3162
2.97500	-3151
2.98333	-3150
2.99167	-3161
3.00000	-3185
3.00833	-3220
3.01667	-3266
3.02500	-3320
3.03333	-3379
3.04167	-3439
3.05000	-3500
3.05833	-3559
3.06667	-3615
3.07500	-3667
3.08333	-3717
3.09167	-3765
3.10000	-3810
3.10833	-3850
3.11667	-3887
3.12500	-3919
3.13333	-3948
3.14167	-3975
3.15000	-3999
3.15833	-4017
3.16667	-4033
3.17500	-4045
3.18333	-4054
3.19167	-4059
3.20000	-4060
3.20833	-4060
3.21667	-4058
3.22500	-4054
3.23333	-4047
3.24167	-4039
3.25000	-4028
3.25833	-4014
3.26667	-4001
3.27500	-3987
3.28333	-3975
3.29167	-3963
3.30000	-3951
3.30833	-3941
3.31667	-3929
3.32500	-3918
3.33333	-3908
3.34167	-3899
3.35000	-3892
3.35833	-3886
3.36667	-3882
3.37500	-3882
3.38333	-3885
3.39167	-3891
3.40000	-3900
3.40833	-3912
3.41667	-3926
3.42500	-3941
3.43333	-3958
3.44167	-3975
3.45000	-3991
3.45833	-4009
3.46667	-4026
3.47500	-4042
3.48333	-4057
3.49167	-4072
3.50000	-4086
3.50833	-4099
3.51667	-4112
3.52500	-4125
3.53333	-4135
3.54167	-4145
3.55000	-4154
3.55833	-4164
3.56667	-4173
3.57500	-4180
3.58333	-4186
3.59167	-4191
3.60000	-4194
3.60833	-4198
3.61667	-4201
3.62500	-4204
3.63333	-4206
3.64167	-4209
3.65000	-4213
3.65833	-4219
3.66667	-4224
3.67500	-4229
3.68333	-4234
3.69167	-4237
3.70000	-4239
3.70833	-4244
3.71667	-4250
3.72500	-4256
3.73333	-4260
3.74167	-4264
3.75000	-4270
3.75833	-4276
3.76667	-4281
3.77500	-4283
3.78333	-4285
3.79167	-4283
3.80000	-4277
3.80833	-4267
3.81667	-4252
3.82500	-4233
3.83333	-4208
3.84167	-4178
3.85000	-4141
3.85833	-4097
3.86667	-4046
3.87500	-3991
3.88333	-3930
3.89167	-3864
3.90000	-3795
3.90833	-3722
3.91667	-3646
3.92500	-3566
3.93333	-3482
3.94167	-3396
3.95000	-3306
3.95833	-3213
3.96667	-3117
3.97500	-3018
3.98333	-2913
3.99167	-2802
4.00000	-2683
4.00833	-2553
4.01667	-2411
4.02500	-2251
4.03333	-2073
4.04167	-1870
4.05000	-1639
4.05833	-1373
4.06667	-1067
4.07500	-714
4.08333	-307
4.09167	162
4.10000	705
4.10833	1331
4.11667	2051
4.12500	2880
4.13333	3833
4.14167	4926
4.15000	6180
4.15833	7617
4.16667	9263
4.17500	11150
4.18333	13314
4.19167	15791
4.20000	18627
4.20833	21868
4.21667	25570
4.22500	29791
4.23333	34593
4.24167	40039
4.25000	46188
4.25833	53095
4.26667	60808
4.27500	69359
4.28333	78751
4.29167	88957
4.30000	99906
4.30833	111482
4.31667	123525
4.32500	135841
4.33333	148203
4.34167	160360
4.35000	172069
4.35833	183107
4.36667	193295
4.37500	202491
4.38333	210607
4.39167	217611
4.40000	223510
4.40833	228352
4.41667	232198
4.42500	235118
4.43333	237173
4.44167	238409
4.45000	238851
4.45833	238498
4.46667	237328
4.47500	235296
4.48333	232354
4.49167	228446
4.50000	223532
4.50833	217584
4.51667	210604
4.52500	202624
4.53333	193707
4.54167	183949
4.55000	173473
4.55833	162423
4.56667	150971
4.57500	139295
4.58333	127573
4.59167	115969
4.60000	104642
4.60833	93732
4.61667	83360
4.62500	73616
4.63333	64564
4.64167	56243
4.65000	48669
4.65833	41839
4.66667	35732
4.67500	30311
4.68333	25532
4.69167	21345
4.70000	17694
4.70833	14527
4.71667	11789
4.72500	9429
4.73333	7399
4.74167	5657
4.75000	4165
4.75833	2889
4.76667	1797
4.77500	862
4.78333	64
4.79167	-618
4.80000	-1202
4.80833	-1700
4.81667	-2127
4.82500	-2494
4.83333	-2809
4.84167	-3081
4.85000	-3315
4.85833	-3516
4.86667	-3690
4.87500	-3841
4.88333	-3974
4.89167	-4092
4.90000	-4195
4.90833	-4286
4.91667	-4369
4.92500	-4442
4.93333	-4509
4.94167	-4568
4.95000	-4622
4.95833	-4670
4.96667	-4713
4.97500	-4754
4.98333	-4791
4.99167	-4825
5.00000	-4857
5.00833	-4887
5.01667	-4915
5.02500	-4941
5.03333	-4966
5.04167	-4990
5.05000	-5012
5.05833	-5033
5.06667	-5054
5.07500	-5073
5.08333	-5092
5.09167	-5110
5.10000	-5127
5.10833	-5143
5.11667	-5160
5.12500	-5176
5.13333	-5192
5.14167	-5206
5.15000	-5220
5.15833	-5232
5.16667	-5245
5.17500	-5257
5.18333	-5269
5.19167	-5281
5.20000	-5293
5.20833	-5303
5.21667	-5313
5.22500	-5324
5.23333	-5336
5.24167	-5346
5.25000	-5357
5.25833	-5368
5.26667	-5377
5.27500	-5386
5.28333	-5396
5.29167	-5405
5.30000	-5413
5.30833	-5420
5.31667	-5427
5.32500	-5434
5.33333	-5441
5.34167	-5448
5.35000	-5455
5.35833	-5461
5.36667	-5469
5.37500	-5477
5.38333	-5484
5.39167	-5491
5.40000	-5498
5.40833	-5506
5.41667	-5513
5.42500	-5520
5.43333	-5526
5.44167	-5532
5.45000	-5537
5.45833	-5544
5.46667	-5551
5.47500	-5556
5.48333	-5562
5.49167	-5568
5.50000	-5574
5.50833	-5578
5.51667	-5585
5.52500	-5593
5.53333	-5600
5.54167	-5607
5.55000	-5614
5.55833	-5621
5.56667	-5629
5.57500	-5637
5.58333	-5644
5.59167	-5652
5.60000	-5659
5.60833	-5666
5.61667	-5673
5.62500	-5681
5.63333	-5688
5.64167	-5694
5.65000	-5699
5.65833	-5705
5.66667	-5711
5.67500	-5717
5.68333	-5723
5.69167	-5729
5.70000	-5733
5.70833	-5736
5.71667	-5740
5.72500	-5743
5.73333	-5745
5.74167	-5747
5.75000	-5748
5.75833	-5749
5.76667	-5750
5.77500	-5750
5.78333	-5749
5.79167	-5748
5.80000	-5746
5.80833	-5745
5.81667	-5742
5.82500	-5736
5.83333	-5733
5.84167	-5733
5.85000	-5733
5.85833	-5734
5.86667	-5735
5.87500	-5735
5.88333	-5735
5.89167	-5734
5.90000	-5734
5.90833	-5734
5.91667	-5733
5.92500	-5732
5.93333	-5732
5.94167	-5726
5.95000	-5724
5.95833	-5726
5.96667	-5729
5.97500	-5732
5.98333	-5735
5.99167	-5738
6.00000	-5741

[LC Status Trace(Pump A Pressure)]
Interval(msec)	1000
# of Points	361
Start Time(min)	0.000
End Time(min)	6.000
Intensity Units	kgf/cm2
Intensity Multiplier	1
R.Time (min)	Intensity
0.00000	150.0
0.01667	150.0
0.03333	148.7
0.05000	148.7
0.06667	149.2
0.08333	151.0
0.10000	154.1
0.11667	155.6
0.13333	156.2
0.15000	156.3
0.16667	156.6
0.18333	156.2
0.20000	156.1
0.21667	155.9
0.23333	155.4
0.25000	155.6
0.26667	154.9
0.28333	154.9
0.30000	154.9
0.31667	154.4
0.33333	154.5
0.35000	154.1
0.36667	154.4
0.38333	154.1
0.40000	153.9
0.41667	153.9
0.43333	153.9
0.45000	153.6
0.46667	153.6
0.48333	153.6
0.50000	153.2
0.51667	153.5
0.53333	153.1
0.55000	153.2
0.56667	153.2
0.58333	153.0
0.60000	153.0
0.61667	153.1
0.63333	152.8
0.65000	152.8
0.66667	152.8
0.68333	152.7
0.70000	152.7
0.71667	152.3
0.73333	152.6
0.75000	152.7
0.76667	152.6
0.78333	152.6
0.80000	152.7
0.81667	152.4
0.83333	152.6
0.85000	152.4
0.86667	152.3
0.88333	152.6
0.90000	152.2
0.91667	152.4
0.93333	152.3
0.95000	152.3
0.96667	152.4
0.98333	152.6
1.00000	152.3
1.01667	152.3
1.03333	152.2
1.05000	152.3
1.06667	152.3
1.08333	152.0
1.10000	152.3
1.11667	152.3
1.13333	152.2
1.15000	152.3
1.16667	152.0
1.18333	152.2
1.20000	152.3
1.21667	152.3
1.23333	152.2
1.25000	152.4
1.26667	152.0
1.28333	152.0
1.30000	152.4
1.31667	152.0
1.33333	152.3
1.35000	152.3
1.36667	152.3
1.38333	152.4
1.40000	152.2
1.41667	152.3
1.43333	152.6
1.45000	152.3
1.46667	152.4
1.48333	152.3
1.50000	152.3
1.51667	152.4
1.53333	152.2
1.55000	152.3
1.56667	152.3
1.58333	151.9
1.60000	152.2
1.61667	152.4
1.63333	151.9
1.65000	152.3
1.66667	152.0
1.68333	152.0
1.70000	152.2
1.71667	151.9
1.73333	152.3
1.75000	152.2
1.76667	152.2
1.78333	152.0
1.80000	151.8
1.81667	151.9
1.83333	152.2
1.85000	151.7
1.86667	151.8
1.88333	152.0
1.90000	151.8
1.91667	152.0
1.93333	151.8
1.95000	151.8
1.96667	152.0
1.98333	151.9
2.00000	152.0
2.01667	152.0
2.03333	151.9
2.05000	151.9
2.06667	152.0
2.08333	151.9
2.10000	151.9
2.11667	151.9
2.13333	152.2
2.15000	152.2
2.16667	152.3
2.18333	152.2
2.20000	152.2
2.21667	152.2
2.23333	152.2
2.25000	152.2
2.26667	151.9
2.28333	152.0
2.30000	152.3
2.31667	152.0
2.33333	152.0
2.35000	152.2
2.36667	152.2
2.38333	152.3
2.40000	152.0
2.41667	152.2
2.43333	152.3
2.45000	152.2
2.46667	152.3
2.48333	152.3
2.50000	152.2
2.51667	152.3
2.53333	152.2
2.55000	152.4
2.56667	152.4
2.58333	152.3
2.60000	152.4
2.61667	152.6
2.63333	152.3
2.65000	152.4
2.66667	152.2
2.68333	152.4
2.70000	152.6
2.71667	152.3
2.73333	152.3
2.75000	152.4
2.76667	152.4
2.78333	152.4
2.80000	152.3
2.81667	152.4
2.83333	152.6
2.85000	152.6
2.86667	152.4
2.88333	152.8
2.90000	152.6
2.91667	152.7
2.93333	152.6
2.95000	152.8
2.96667	152.8
2.98333	152.6
3.00000	152.6
3.01667	152.4
3.03333	152.6
3.05000	152.6
3.06667	152.7
3.08333	152.4
3.10000	152.4
3.11667	152.4
3.13333	152.3
3.15000	152.6
3.16667	152.7
3.18333	152.6
3.20000	152.8
3.21667	152.4
3.23333	152.7
3.25000	152.7
3.26667	152.6
3.28333	152.6
3.30000	152.7
3.31667	152.6
3.33333	152.7
3.35000	152.3
3.36667	152.6
3.38333	152.7
3.40000	152.4
3.41667	152.6
3.43333	152.7
3.45000	152.6
3.46667	153.0
3.48333	152.8
3.50000	152.8
3.51667	153.0
3.53333	152.4
3.55000	152.7
3.56667	152.8
3.58333	152.4
3.60000	152.7
3.61667	153.0
3.63333	152.6
3.65000	152.7
3.66667	152.8
3.68333	152.8
3.70000	152.7
3.71667	152.6
3.73333	152.8
3.75000	152.8
3.76667	152.8
3.78333	153.0
3.80000	153.1
3.81667	152.8
3.83333	153.1
3.85000	153.0
3.86667	152.7
3.88333	153.0
3.90000	152.7
3.91667	152.8
3.93333	153.1
3.95000	152.7
3.96667	152.8
3.98333	153.1
4.00000	152.7
4.01667	152.7
4.03333	153.1
4.05000	152.8
4.06667	153.1
4.08333	152.7
4.10000	153.0
4.11667	153.1
4.13333	153.0
4.15000	153.1
4.16667	152.8
4.18333	152.8
4.20000	153.0
4.21667	152.8
4.23333	153.0
4.25000	152.8
4.26667	153.1
4.28333	153.1
4.30000	153.0
4.31667	152.8
4.33333	153.2
4.35000	153.0
4.36667	153.2
4.38333	153.1
4.40000	153.1
4.41667	153.1
4.43333	153.1
4.45000	153.1
4.46667	153.1
4.48333	153.0
4.50000	153.1
4.51667	153.1
4.53333	153.0
4.55000	153.2
4.56667	153.2
4.58333	153.1
4.60000	153.2
4.61667	153.2
4.63333	153.1
4.65000	153.2
4.66667	153.0
4.68333	153.2
4.70000	153.4
4.71667	153.0
4.73333	153.2
4.75000	153.0
4.76667	153.2
4.78333	153.2
4.80000	153.1
4.81667	153.1
4.83333	153.4
4.85000	152.8
4.86667	153.1
4.88333	153.4
4.90000	153.0
4.91667	153.1
4.93333	153.2
4.95000	153.1
4.96667	153.2
4.98333	153.2
5.00000	153.1
5.01667	153.1
5.03333	153.4
5.05000	153.0
5.06667	153.2
5.08333	153.0
5.10000	153.4
5.11667	153.2
5.13333	153.2
5.15000	153.4
5.16667	153.1
5.18333	153.2
5.20000	153.4
5.21667	153.1
5.23333	153.4
5.25000	153.0
5.26667	153.2
5.28333	153.4
5.30000	153.1
5.31667	153.2
5.33333	153.2
5.35000	153.4
5.36667	153.2
5.38333	153.4
5.40000	153.4
5.41667	153.1
5.43333	153.2
5.45000	153.2
5.46667	153.5
5.48333	153.2
5.50000	153.2
5.51667	153.4
5.53333	153.2
5.55000	153.2
5.56667	153.5
5.58333	153.2
5.60000	153.1
5.61667	153.1
5.63333	153.1
5.65000	153.2
5.66667	152.8
5.68333	152.8
5.70000	153.2
5.71667	152.8
5.73333	152.8
5.75000	152.8
5.76667	153.0
5.78333	153.2
5.80000	153.0
5.81667	153.1
5.83333	153.1
5.85000	153.0
5.86667	153.0
5.88333	153.1
5.90000	153.0
5.91667	153.0
5.93333	153.1
5.95000	153.0
5.96667	153.0
5.98333	152.8
6.00000	153.1

[LC Status Trace(UV Cell Temp.)]
Interval(msec)	1000
# of Points	361
Start Time(min)	0.000
End Time(min)	6.000
Intensity Units	C
Intensity Multiplier	1
R.Time (min)	Intensity
0.00000	40.00
0.01667	40.00
0.03333	39.97
0.05000	39.96
0.06667	39.93
0.08333	39.93
0.10000	39.93
0.11667	39.99
0.13333	40.05
0.15000	40.00
0.16667	40.00
0.18333	40.03
0.20000	40.03
0.21667	40.00
0.23333	40.02
0.25000	40.00
0.26667	39.97
0.28333	39.98
0.30000	40.00
0.31667	39.99
0.33333	39.99
0.35000	40.00
0.36667	40.05
0.38333	40.00
0.40000	40.00
0.41667	39.99
0.43333	39.95
0.45000	39.91
0.46667	39.98
0.48333	39.98
0.50000	39.95
0.51667	40.00
0.53333	40.00
0.55000	39.99
0.56667	39.99
0.58333	39.99
0.60000	40.00
0.61667	40.02
0.63333	40.03
0.65000	40.00
0.66667	39.97
0.68333	40.00
0.70000	40.00
0.71667	39.99
0.73333	39.97
0.75000	39.97
0.76667	39.99
0.78333	39.99
0.80000	39.96
0.81667	39.99
0.83333	40.00
0.85000	40.00
0.86667	40.00
0.88333	39.99
0.90000	40.00
0.91667	39.98
0.93333	40.00
0.95000	39.99
0.96667	40.00
0.98333	40.00
1.00000	40.00
1.01667	40.00
1.03333	40.02
1.05000	40.00
1.06667	39.99
1.08333	39.96
1.10000	40.00
1.11667	40.00
1.13333	40.02
1.15000	40.00
1.16667	40.00
1.18333	40.02
1.20000	40.03
1.21667	40.00
1.23333	40.00
1.25000	39.96
1.26667	40.00
1.28333	40.00
1.30000	39.97
1.31667	39.99
1.33333	40.00
1.35000	40.03
1.36667	40.00
1.38333	39.99
1.40000	40.00
1.41667	40.00
1.43333	40.03
1.45000	40.02
1.46667	40.00
1.48333	39.98
1.50000	40.02
1.51667	40.02
1.53333	40.03
1.55000	40.00
1.56667	39.98
1.58333	39.99
1.60000	40.00
1.61667	40.00
1.63333	39.99
1.65000	39.99
1.66667	40.05
1.68333	40.02
1.70000	39.99
1.71667	39.98
1.73333	40.00
1.75000	40.00
1.76667	40.06
1.78333	40.00
1.80000	40.02
1.81667	40.00
1.83333	40.00
1.85000	40.00
1.86667	39.97
1.88333	39.93
1.90000	39.95
1.91667	39.99
1.93333	39.99
1.95000	40.00
1.96667	40.00
1.98333	40.03
2.00000	40.05
2.01667	40.02
2.03333	40.00
2.05000	40.00
2.06667	40.02
2.08333	40.02
2.10000	40.00
2.11667	40.00
2.13333	40.00
2.15000	40.08
2.16667	40.06
2.18333	40.02
2.20000	40.02
2.21667	40.03
2.23333	40.00
2.25000	40.00
2.26667	40.03
2.28333	40.03
2.30000	40.00
2.31667	40.00
2.33333	40.00
2.35000	40.02
2.36667	40.05
2.38333	39.99
2.40000	39.99
2.41667	40.00
2.43333	40.00
2.45000	40.00
2.46667	39.96
2.48333	39.93
2.50000	39.93
2.51667	39.93
2.53333	39.93
2.55000	39.93
2.56667	39.95
2.58333	39.99
2.60000	40.00
2.61667	40.00
2.63333	40.00
2.65000	40.00
2.66667	40.02
2.68333	39.99
2.70000	39.99
2.71667	40.02
2.73333	40.02
2.75000	39.99
2.76667	39.99
2.78333	40.03
2.80000	40.02
2.81667	40.00
2.83333	40.00
2.85000	39.99
2.86667	40.00
2.88333	39.99
2.90000	39.99
2.91667	40.00
2.93333	40.00
2.95000	39.96
2.96667	39.95
2.98333	39.93
3.00000	39.95
3.01667	40.03
3.03333	40.00
3.05000	40.02
3.06667	40.00
3.08333	39.97
3.10000	39.91
3.11667	39.99
3.13333	39.99
3.15000	40.00
3.16667	40.03
3.18333	39.99
3.20000	40.00
3.21667	40.00
3.23333	40.02
3.25000	39.98
3.26667	39.98
3.28333	40.00
3.30000	40.00
3.31667	40.00
3.33333	40.00
3.35000	40.00
3.36667	39.99
3.38333	39.95
3.40000	39.99
3.41667	40.03
3.43333	40.02
3.45000	39.99
3.46667	40.00
3.48333	40.00
3.50000	40.00
3.51667	39.99
3.53333	40.02
3.55000	40.00
3.56667	40.00
3.58333	40.00
3.60000	39.98
3.61667	40.00
3.63333	40.00
3.65000	40.03
3.66667	40.06
3.68333	40.00
3.70000	40.00
3.71667	39.99
3.73333	40.00
3.75000	40.00
3.76667	39.99
3.78333	39.99
3.80000	40.00
3.81667	39.97
3.83333	39.97
3.85000	39.97
3.86667	39.97
3.88333	40.00
3.90000	40.03
3.91667	40.02
3.93333	40.00
3.95000	40.00
3.96667	40.00
3.98333	39.98
4.00000	39.97
4.01667	40.00
4.03333	39.99
4.05000	40.00
4.06667	40.00
4.08333	39.99
4.10000	39.99
4.11667	39.99
4.13333	40.00
4.15000	40.06
4.16667	40.06
4.18333	40.05
4.20000	40.00
4.21667	40.00
4.23333	39.98
4.25000	39.95
4.26667	39.98
4.28333	40.00
4.30000	39.99
4.31667	40.00
4.33333	40.05
4.35000	40.00
4.36667	40.00
4.38333	40.02
4.40000	40.00
4.41667	39.97
4.43333	39.98
4.45000	40.00
4.46667	40.05
4.48333	40.00
4.50000	39.99
4.51667	40.02
4.53333	40.03
4.55000	40.00
4.56667	40.00
4.58333	39.99
4.60000	40.00
4.61667	39.99
4.63333	40.02
4.65000	40.00
4.66667	39.98
4.68333	40.00
4.70000	40.00
4.71667	39.97
4.73333	39.96
4.75000	39.99
4.76667	40.00
4.78333	39.98
4.80000	40.00
4.81667	39.99
4.83333	40.00
4.85000	39.98
4.86667	40.00
4.88333	40.00
4.90000	40.00
4.91667	40.00
4.93333	40.02
4.95000	40.00
4.96667	40.00
4.98333	39.97
5.00000	39.93
5.01667	40.00
5.03333	40.03
5.05000	40.03
5.06667	40.00
5.08333	39.99
5.10000	39.97
5.11667	40.00
5.13333	40.00
5.15000	40.00
5.16667	40.00
5.18333	40.00
5.20000	40.00
5.21667	40.03
5.23333	40.07
5.25000	39.99
5.26667	40.00
5.28333	40.00
5.30000	40.00
5.31667	40.00
5.33333	40.00
5.35000	40.02
5.36667	40.00
5.38333	40.00
5.40000	40.00
5.41667	40.00
5.43333	39.98
5.45000	39.93
5.46667	39.93
5.48333	39.98
5.50000	39.99
5.51667	39.99
5.53333	40.00
5.55000	40.00
5.56667	40.00
5.58333	39.99
5.60000	39.95
5.61667	39.99
5.63333	40.00
5.65000	40.00
5.66667	39.99
5.68333	39.99
5.70000	39.99
5.71667	40.00
5.73333	39.99
5.75000	40.00
5.76667	40.00
5.78333	39.99
5.80000	40.02
5.81667	40.00
5.83333	39.99
5.85000	40.00
5.86667	40.00
5.88333	40.00
5.90000	40.00
5.91667	39.99
5.93333	39.96
5.95000	39.99
5.96667	39.99
5.98333	40.02
6.00000	40.00

[Fraction Collection Report]
# of Fractions	0

