[Header]
Application Name	LCsolution
Version	1.25
Data File Name	C:\LabSolutions\Data\Caffeine\20161014\sample-2.lcd
Output Date	2019/1/7
Output Time	下午 06:33:17

[File Information]
Type	Data File
Generated	2016/10/14 下午 11:17:03
Generated by	Admin
Modified	2017/2/10 下午 02:56:47
Modified by	Admin

[Sample Information]
Operator Name	Admin
Acquired	2016/10/14 下午 11:17:09
Sample Type	0:Unknown
Level	1
Sample Name	咖啡因-樣品20161014
Sample ID	
ISTD Amount 1	1
ISTD Amount 2	1
ISTD Amount 3	1
ISTD Amount 4	1
ISTD Amount 5	1
ISTD Amount 6	1
ISTD Amount 7	1
ISTD Amount 8	1
ISTD Amount 9	1
ISTD Amount 10	1
ISTD Amount 11	1
ISTD Amount 12	1
ISTD Amount 13	1
ISTD Amount 14	1
ISTD Amount 15	1
ISTD Amount 16	1
ISTD Amount 17	1
ISTD Amount 18	1
ISTD Amount 19	1
ISTD Amount 20	1
ISTD Amount 21	1
ISTD Amount 22	1
ISTD Amount 23	1
ISTD Amount 24	1
ISTD Amount 25	1
ISTD Amount 26	1
ISTD Amount 27	1
ISTD Amount 28	1
ISTD Amount 29	1
ISTD Amount 30	1
ISTD Amount 31	1
ISTD Amount 32	1
Sample Amount	1
Dilution Factor	1
Vial#	
Injection Volume	10

[Original Files]
Data File	C:\LabSolutions\Data\Caffeine\20161014\sample-2.lcd
Method File	C:\LabSolutions\Method\Caffeine咖啡因\NEW-Caffeine 280nm  SB-C18 5um 4.6x250mm -10ul-1.0mL  A(40)-H2O  D(60)-MeOH.lcm
Batch File	
Report Format File	C:\LabSolutions\LCsolution\System\Default.lcr
Tuning File	

[File Description]


[Configuration]
# of Detectors	1
Detector ID	Detector A
Detector Name	Detector A
# of Channels	1

[Peak Table(Detector A-Ch1)]
# of Peaks	1
Peak#	R.Time	I.Time	F.Time	Area	Height	A/H	Conc.	Mark	ID#	Name	k'	Plate #	Plate Ht.	Tailing	Resolution	Sep.Factor	Conc. %	Norm Conc.
1	4.428	3.783	5.125	3952115	243743	16.2140	93.2566	   	1	咖啡因	0.000	1806	138.414	1.160	0.000	0.000	100.0000	100.0000

[Peak Table(PDA-Ch1)]
# of Peaks	0

[Compound Results(Detector A)]
# of IDs	1
ID#	Name	R.Time	Area	Height	Conc.	Curve	3rd	2nd	1st	Constant	Conc. %	Norm Conc.
1	咖啡因	4.428	3952115	243743	93.2566	Linear	0.0	0.0	2.54572e-005	-7.353162	100.0000	100.0000

[Compound Results(PDA)]
# of IDs	0

[Group Results(Detector A)]
# of Groups	0

[Group Results(PDA)]
# of Groups	0

[LC Chromatogram(Detector A-Ch1)]
Interval(msec)	500
# of Points	721
Start Time(min)	0.000
End Time(min)	6.000
Intensity Units	mV
Intensity Multiplier	0.001
Wavelength(nm)	280
R.Time (min)	Intensity
0.00000	-841
0.00833	-841
0.01667	-404
0.02500	-1
0.03333	-2
0.04167	-2
0.05000	-2
0.05833	-3
0.06667	-4
0.07500	-5
0.08333	-7
0.09167	-9
0.10000	-9
0.10833	-7
0.11667	-8
0.12500	-8
0.13333	-9
0.14167	-9
0.15000	-10
0.15833	-10
0.16667	-10
0.17500	-11
0.18333	-12
0.19167	-12
0.20000	-13
0.20833	-12
0.21667	-13
0.22500	-14
0.23333	-14
0.24167	-14
0.25000	-13
0.25833	-13
0.26667	-13
0.27500	-11
0.28333	-10
0.29167	-9
0.30000	-9
0.30833	-9
0.31667	-8
0.32500	-7
0.33333	-7
0.34167	-5
0.35000	-4
0.35833	-2
0.36667	1
0.37500	1
0.38333	-2
0.39167	-5
0.40000	-6
0.40833	-6
0.41667	-7
0.42500	-8
0.43333	-8
0.44167	-9
0.45000	-9
0.45833	-9
0.46667	-8
0.47500	-7
0.48333	-7
0.49167	-7
0.50000	-7
0.50833	-7
0.51667	-7
0.52500	-8
0.53333	-9
0.54167	-9
0.55000	-10
0.55833	-10
0.56667	-11
0.57500	-11
0.58333	-9
0.59167	-8
0.60000	-9
0.60833	-10
0.61667	-11
0.62500	-12
0.63333	-13
0.64167	-14
0.65000	-15
0.65833	-16
0.66667	-17
0.67500	-18
0.68333	-17
0.69167	-18
0.70000	-17
0.70833	-18
0.71667	-20
0.72500	-21
0.73333	-21
0.74167	-22
0.75000	-23
0.75833	-23
0.76667	-25
0.77500	-25
0.78333	-26
0.79167	-27
0.80000	-27
0.80833	-27
0.81667	-28
0.82500	-29
0.83333	-30
0.84167	-30
0.85000	-31
0.85833	-31
0.86667	-31
0.87500	-32
0.88333	-33
0.89167	-34
0.90000	-34
0.90833	-35
0.91667	-35
0.92500	-35
0.93333	-34
0.94167	-33
0.95000	-31
0.95833	-26
0.96667	-15
0.97500	6
0.98333	41
0.99167	91
1.00000	152
1.00833	221
1.01667	294
1.02500	372
1.03333	468
1.04167	613
1.05000	878
1.05833	1384
1.06667	2305
1.07500	3829
1.08333	6071
1.09167	8998
1.10000	12416
1.10833	16020
1.11667	19485
1.12500	22533
1.13333	24985
1.14167	26764
1.15000	27877
1.15833	28387
1.16667	28397
1.17500	28025
1.18333	27392
1.19167	26610
1.20000	25789
1.20833	25016
1.21667	24354
1.22500	23828
1.23333	23422
1.24167	23081
1.25000	22718
1.25833	22242
1.26667	21568
1.27500	20644
1.28333	19473
1.29167	18129
1.30000	16734
1.30833	15429
1.31667	14349
1.32500	13596
1.33333	13243
1.34167	13338
1.35000	13903
1.35833	14906
1.36667	16242
1.37500	17722
1.38333	19098
1.39167	20130
1.40000	20678
1.40833	20763
1.41667	20597
1.42500	20645
1.43333	23177
1.44167	36534
1.45000	66927
1.45833	108307
1.46667	149007
1.47500	180137
1.48333	196971
1.49167	198501
1.50000	186826
1.50833	166000
1.51667	140574
1.52500	114462
1.53333	90361
1.54167	69690
1.55000	52869
1.55833	39697
1.56667	29662
1.57500	22168
1.58333	16648
1.59167	12623
1.60000	9712
1.60833	7618
1.61667	6119
1.62500	5048
1.63333	4283
1.64167	3737
1.65000	3346
1.65833	3065
1.66667	2859
1.67500	2705
1.68333	2587
1.69167	2495
1.70000	2420
1.70833	2357
1.71667	2302
1.72500	2252
1.73333	2206
1.74167	2163
1.75000	2120
1.75833	2075
1.76667	2029
1.77500	1984
1.78333	1939
1.79167	1894
1.80000	1849
1.80833	1803
1.81667	1753
1.82500	1702
1.83333	1652
1.84167	1608
1.85000	1569
1.85833	1537
1.86667	1509
1.87500	1485
1.88333	1465
1.89167	1448
1.90000	1435
1.90833	1424
1.91667	1414
1.92500	1407
1.93333	1403
1.94167	1400
1.95000	1397
1.95833	1393
1.96667	1390
1.97500	1388
1.98333	1387
1.99167	1384
2.00000	1381
2.00833	1380
2.01667	1379
2.02500	1379
2.03333	1381
2.04167	1385
2.05000	1392
2.05833	1400
2.06667	1411
2.07500	1424
2.08333	1439
2.09167	1454
2.10000	1471
2.10833	1488
2.11667	1504
2.12500	1520
2.13333	1534
2.14167	1549
2.15000	1562
2.15833	1575
2.16667	1589
2.17500	1605
2.18333	1622
2.19167	1639
2.20000	1656
2.20833	1672
2.21667	1687
2.22500	1698
2.23333	1707
2.24167	1713
2.25000	1715
2.25833	1713
2.26667	1708
2.27500	1702
2.28333	1696
2.29167	1690
2.30000	1684
2.30833	1677
2.31667	1667
2.32500	1659
2.33333	1648
2.34167	1635
2.35000	1619
2.35833	1603
2.36667	1586
2.37500	1574
2.38333	1564
2.39167	1558
2.40000	1556
2.40833	1559
2.41667	1561
2.42500	1566
2.43333	1573
2.44167	1582
2.45000	1592
2.45833	1604
2.46667	1615
2.47500	1630
2.48333	1643
2.49167	1656
2.50000	1670
2.50833	1687
2.51667	1707
2.52500	1731
2.53333	1758
2.54167	1788
2.55000	1822
2.55833	1858
2.56667	1897
2.57500	1936
2.58333	1972
2.59167	2002
2.60000	2025
2.60833	2040
2.61667	2047
2.62500	2045
2.63333	2033
2.64167	2013
2.65000	1987
2.65833	1955
2.66667	1919
2.67500	1885
2.68333	1853
2.69167	1824
2.70000	1802
2.70833	1786
2.71667	1778
2.72500	1778
2.73333	1785
2.74167	1799
2.75000	1819
2.75833	1843
2.76667	1870
2.77500	1899
2.78333	1928
2.79167	1954
2.80000	1979
2.80833	2001
2.81667	2020
2.82500	2034
2.83333	2041
2.84167	2044
2.85000	2039
2.85833	2029
2.86667	2016
2.87500	1998
2.88333	1976
2.89167	1951
2.90000	1926
2.90833	1900
2.91667	1874
2.92500	1850
2.93333	1825
2.94167	1803
2.95000	1784
2.95833	1767
2.96667	1752
2.97500	1740
2.98333	1729
2.99167	1719
3.00000	1713
3.00833	1708
3.01667	1702
3.02500	1698
3.03333	1694
3.04167	1694
3.05000	1695
3.05833	1699
3.06667	1705
3.07500	1714
3.08333	1725
3.09167	1738
3.10000	1753
3.10833	1770
3.11667	1787
3.12500	1803
3.13333	1820
3.14167	1833
3.15000	1843
3.15833	1851
3.16667	1856
3.17500	1860
3.18333	1861
3.19167	1861
3.20000	1863
3.20833	1867
3.21667	1871
3.22500	1877
3.23333	1886
3.24167	1898
3.25000	1912
3.25833	1928
3.26667	1945
3.27500	1961
3.28333	1977
3.29167	1993
3.30000	2007
3.30833	2020
3.31667	2031
3.32500	2041
3.33333	2050
3.34167	2057
3.35000	2065
3.35833	2074
3.36667	2083
3.37500	2093
3.38333	2103
3.39167	2115
3.40000	2130
3.40833	2148
3.41667	2169
3.42500	2196
3.43333	2228
3.44167	2267
3.45000	2313
3.45833	2365
3.46667	2422
3.47500	2487
3.48333	2559
3.49167	2635
3.50000	2712
3.50833	2788
3.51667	2862
3.52500	2936
3.53333	3004
3.54167	3064
3.55000	3115
3.55833	3155
3.56667	3183
3.57500	3198
3.58333	3201
3.59167	3192
3.60000	3172
3.60833	3142
3.61667	3106
3.62500	3065
3.63333	3022
3.64167	2979
3.65000	2938
3.65833	2898
3.66667	2861
3.67500	2828
3.68333	2801
3.69167	2783
3.70000	2767
3.70833	2758
3.71667	2755
3.72500	2761
3.73333	2778
3.74167	2801
3.75000	2833
3.75833	2872
3.76667	2922
3.77500	2983
3.78333	3052
3.79167	3127
3.80000	3209
3.80833	3294
3.81667	3378
3.82500	3461
3.83333	3539
3.84167	3609
3.85000	3669
3.85833	3718
3.86667	3755
3.87500	3779
3.88333	3792
3.89167	3794
3.90000	3786
3.90833	3771
3.91667	3752
3.92500	3728
3.93333	3700
3.94167	3670
3.95000	3641
3.95833	3613
3.96667	3587
3.97500	3564
3.98333	3545
3.99167	3532
4.00000	3524
4.00833	3523
4.01667	3528
4.02500	3540
4.03333	3559
4.04167	3587
4.05000	3626
4.05833	3675
4.06667	3737
4.07500	3813
4.08333	3906
4.09167	4018
4.10000	4153
4.10833	4317
4.11667	4518
4.12500	4765
4.13333	5070
4.14167	5448
4.15000	5919
4.15833	6510
4.16667	7255
4.17500	8193
4.18333	9376
4.19167	10869
4.20000	12747
4.20833	15103
4.21667	18037
4.22500	21661
4.23333	26094
4.24167	31459
4.25000	37873
4.25833	45434
4.26667	54207
4.27500	64217
4.28333	75434
4.29167	87772
4.30000	101070
4.30833	115101
4.31667	129583
4.32500	144199
4.33333	158615
4.34167	172508
4.35000	185583
4.35833	197593
4.36667	208357
4.37500	217761
4.38333	225759
4.39167	232354
4.40000	237588
4.40833	241522
4.41667	244228
4.42500	245767
4.43333	246190
4.44167	245526
4.45000	243786
4.45833	240971
4.46667	237068
4.47500	232073
4.48333	225994
4.49167	218862
4.50000	210733
4.50833	201690
4.51667	191843
4.52500	181326
4.53333	170297
4.54167	158926
4.55000	147386
4.55833	135844
4.56667	124456
4.57500	113369
4.58333	102709
4.59167	92577
4.60000	83054
4.60833	74193
4.61667	66026
4.62500	58568
4.63333	51813
4.64167	45740
4.65000	40318
4.65833	35507
4.66667	31262
4.67500	27534
4.68333	24274
4.69167	21436
4.70000	18970
4.70833	16831
4.71667	14980
4.72500	13382
4.73333	12001
4.74167	10809
4.75000	9779
4.75833	8890
4.76667	8120
4.77500	7453
4.78333	6876
4.79167	6374
4.80000	5936
4.80833	5551
4.81667	5213
4.82500	4918
4.83333	4658
4.84167	4425
4.85000	4216
4.85833	4028
4.86667	3859
4.87500	3705
4.88333	3564
4.89167	3436
4.90000	3318
4.90833	3210
4.91667	3107
4.92500	3013
4.93333	2925
4.94167	2844
4.95000	2767
4.95833	2694
4.96667	2624
4.97500	2558
4.98333	2496
4.99167	2438
5.00000	2382
5.00833	2329
5.01667	2280
5.02500	2232
5.03333	2186
5.04167	2142
5.05000	2100
5.05833	2060
5.06667	2021
5.07500	1983
5.08333	1948
5.09167	1914
5.10000	1882
5.10833	1851
5.11667	1822
5.12500	1793
5.13333	1767
5.14167	1743
5.15000	1719
5.15833	1697
5.16667	1677
5.17500	1658
5.18333	1640
5.19167	1624
5.20000	1609
5.20833	1596
5.21667	1585
5.22500	1575
5.23333	1567
5.24167	1561
5.25000	1556
5.25833	1553
5.26667	1550
5.27500	1549
5.28333	1548
5.29167	1548
5.30000	1549
5.30833	1551
5.31667	1554
5.32500	1557
5.33333	1559
5.34167	1562
5.35000	1566
5.35833	1569
5.36667	1571
5.37500	1571
5.38333	1571
5.39167	1570
5.40000	1567
5.40833	1563
5.41667	1558
5.42500	1552
5.43333	1544
5.44167	1535
5.45000	1526
5.45833	1517
5.46667	1506
5.47500	1493
5.48333	1480
5.49167	1466
5.50000	1453
5.50833	1439
5.51667	1426
5.52500	1413
5.53333	1401
5.54167	1388
5.55000	1376
5.55833	1365
5.56667	1355
5.57500	1345
5.58333	1336
5.59167	1328
5.60000	1321
5.60833	1316
5.61667	1313
5.62500	1309
5.63333	1309
5.64167	1310
5.65000	1313
5.65833	1316
5.66667	1319
5.67500	1325
5.68333	1332
5.69167	1342
5.70000	1353
5.70833	1365
5.71667	1378
5.72500	1394
5.73333	1412
5.74167	1429
5.75000	1446
5.75833	1465
5.76667	1484
5.77500	1503
5.78333	1521
5.79167	1539
5.80000	1557
5.80833	1572
5.81667	1587
5.82500	1601
5.83333	1612
5.84167	1621
5.85000	1627
5.85833	1634
5.86667	1640
5.87500	1643
5.88333	1645
5.89167	1644
5.90000	1641
5.90833	1637
5.91667	1630
5.92500	1623
5.93333	1614
5.94167	1604
5.95000	1595
5.95833	1583
5.96667	1569
5.97500	1556
5.98333	1542
5.99167	1528
6.00000	1513

[LC Status Trace(Pump A Pressure)]
Interval(msec)	1000
# of Points	361
Start Time(min)	0.000
End Time(min)	6.000
Intensity Units	kgf/cm2
Intensity Multiplier	1
R.Time (min)	Intensity
0.00000	152.2
0.01667	152.2
0.03333	152.3
0.05000	153.0
0.06667	155.3
0.08333	157.2
0.10000	158.2
0.11667	158.2
0.13333	157.9
0.15000	158.0
0.16667	157.4
0.18333	157.2
0.20000	157.2
0.21667	156.9
0.23333	156.9
0.25000	156.6
0.26667	156.5
0.28333	156.3
0.30000	156.5
0.31667	156.1
0.33333	155.9
0.35000	155.9
0.36667	156.1
0.38333	155.8
0.40000	155.7
0.41667	155.6
0.43333	155.7
0.45000	155.3
0.46667	155.6
0.48333	155.6
0.50000	155.2
0.51667	155.2
0.53333	155.3
0.55000	155.2
0.56667	155.2
0.58333	154.9
0.60000	154.9
0.61667	155.0
0.63333	154.8
0.65000	154.9
0.66667	154.9
0.68333	154.8
0.70000	154.8
0.71667	154.9
0.73333	154.8
0.75000	154.8
0.76667	154.6
0.78333	154.6
0.80000	154.6
0.81667	154.6
0.83333	154.6
0.85000	154.1
0.86667	154.4
0.88333	154.5
0.90000	154.5
0.91667	154.1
0.93333	154.3
0.95000	154.5
0.96667	154.4
0.98333	154.1
1.00000	154.4
1.01667	154.4
1.03333	154.3
1.05000	154.3
1.06667	154.4
1.08333	154.1
1.10000	154.3
1.11667	154.3
1.13333	154.0
1.15000	154.3
1.16667	154.0
1.18333	154.1
1.20000	154.1
1.21667	154.0
1.23333	154.3
1.25000	154.3
1.26667	154.0
1.28333	154.1
1.30000	154.3
1.31667	154.3
1.33333	154.3
1.35000	153.7
1.36667	153.9
1.38333	154.1
1.40000	153.9
1.41667	154.3
1.43333	154.3
1.45000	154.0
1.46667	154.1
1.48333	154.4
1.50000	154.0
1.51667	154.1
1.53333	154.0
1.55000	153.6
1.56667	153.9
1.58333	153.6
1.60000	153.7
1.61667	153.9
1.63333	153.6
1.65000	153.6
1.66667	153.7
1.68333	153.9
1.70000	153.9
1.71667	153.7
1.73333	153.6
1.75000	153.7
1.76667	153.6
1.78333	153.5
1.80000	153.5
1.81667	153.6
1.83333	153.6
1.85000	153.4
1.86667	153.6
1.88333	153.9
1.90000	153.5
1.91667	153.6
1.93333	153.7
1.95000	153.5
1.96667	153.5
1.98333	153.6
2.00000	153.6
2.01667	153.7
2.03333	153.9
2.05000	153.6
2.06667	153.7
2.08333	153.6
2.10000	153.7
2.11667	153.6
2.13333	153.6
2.15000	153.6
2.16667	153.5
2.18333	153.6
2.20000	153.7
2.21667	153.6
2.23333	153.9
2.25000	154.0
2.26667	153.7
2.28333	153.7
2.30000	153.9
2.31667	153.6
2.33333	153.7
2.35000	153.4
2.36667	153.6
2.38333	153.7
2.40000	153.5
2.41667	153.6
2.43333	153.6
2.45000	153.5
2.46667	153.7
2.48333	153.5
2.50000	153.5
2.51667	153.6
2.53333	153.6
2.55000	153.2
2.56667	153.5
2.58333	153.5
2.60000	153.5
2.61667	153.7
2.63333	153.5
2.65000	153.5
2.66667	153.4
2.68333	153.7
2.70000	153.7
2.71667	153.5
2.73333	153.6
2.75000	153.9
2.76667	153.5
2.78333	153.5
2.80000	153.9
2.81667	153.6
2.83333	153.6
2.85000	153.6
2.86667	153.7
2.88333	153.7
2.90000	153.7
2.91667	153.5
2.93333	153.6
2.95000	153.5
2.96667	153.6
2.98333	153.6
3.00000	153.7
3.01667	153.6
3.03333	153.6
3.05000	153.6
3.06667	153.7
3.08333	153.6
3.10000	153.6
3.11667	153.9
3.13333	153.6
3.15000	153.7
3.16667	153.9
3.18333	153.7
3.20000	153.9
3.21667	153.7
3.23333	153.7
3.25000	153.7
3.26667	153.7
3.28333	153.9
3.30000	153.5
3.31667	153.7
3.33333	153.5
3.35000	153.6
3.36667	153.6
3.38333	153.7
3.40000	153.6
3.41667	153.6
3.43333	153.9
3.45000	153.5
3.46667	153.7
3.48333	153.7
3.50000	153.6
3.51667	153.9
3.53333	153.9
3.55000	153.5
3.56667	153.9
3.58333	153.6
3.60000	153.6
3.61667	153.9
3.63333	153.5
3.65000	153.6
3.66667	153.6
3.68333	153.7
3.70000	153.9
3.71667	154.0
3.73333	153.7
3.75000	153.9
3.76667	153.9
3.78333	153.7
3.80000	153.7
3.81667	153.7
3.83333	153.7
3.85000	153.5
3.86667	153.6
3.88333	153.9
3.90000	153.7
3.91667	153.7
3.93333	153.9
3.95000	153.6
3.96667	153.9
3.98333	153.6
4.00000	153.7
4.01667	154.0
4.03333	153.6
4.05000	153.7
4.06667	154.0
4.08333	153.7
4.10000	154.0
4.11667	153.9
4.13333	154.0
4.15000	153.9
4.16667	154.0
4.18333	153.7
4.20000	153.9
4.21667	153.7
4.23333	153.7
4.25000	153.9
4.26667	153.9
4.28333	154.0
4.30000	153.6
4.31667	154.0
4.33333	153.7
4.35000	153.7
4.36667	153.9
4.38333	154.0
4.40000	153.9
4.41667	153.9
4.43333	153.9
4.45000	153.6
4.46667	153.9
4.48333	154.1
4.50000	153.7
4.51667	153.7
4.53333	154.0
4.55000	153.7
4.56667	154.0
4.58333	153.7
4.60000	153.7
4.61667	153.9
4.63333	153.9
4.65000	154.0
4.66667	153.7
4.68333	153.7
4.70000	154.0
4.71667	154.1
4.73333	153.7
4.75000	153.9
4.76667	153.7
4.78333	153.9
4.80000	153.9
4.81667	153.7
4.83333	153.9
4.85000	153.9
4.86667	153.9
4.88333	154.0
4.90000	153.6
4.91667	153.9
4.93333	154.1
4.95000	153.5
4.96667	153.7
4.98333	153.6
5.00000	153.9
5.01667	153.9
5.03333	153.7
5.05000	153.7
5.06667	153.9
5.08333	153.7
5.10000	153.7
5.11667	153.7
5.13333	153.6
5.15000	153.7
5.16667	153.5
5.18333	153.6
5.20000	153.9
5.21667	153.4
5.23333	153.6
5.25000	153.7
5.26667	153.7
5.28333	153.6
5.30000	153.7
5.31667	153.5
5.33333	153.7
5.35000	153.6
5.36667	153.6
5.38333	153.7
5.40000	153.5
5.41667	153.4
5.43333	153.6
5.45000	153.4
5.46667	153.5
5.48333	153.4
5.50000	153.6
5.51667	153.6
5.53333	153.7
5.55000	153.4
5.56667	153.7
5.58333	153.5
5.60000	153.5
5.61667	153.6
5.63333	153.4
5.65000	153.7
5.66667	153.5
5.68333	153.6
5.70000	153.7
5.71667	153.9
5.73333	153.6
5.75000	153.7
5.76667	153.5
5.78333	153.7
5.80000	153.7
5.81667	153.7
5.83333	153.9
5.85000	153.6
5.86667	153.7
5.88333	153.7
5.90000	153.5
5.91667	153.6
5.93333	153.6
5.95000	153.4
5.96667	153.7
5.98333	153.5
6.00000	153.6

[LC Status Trace(UV Cell Temp.)]
Interval(msec)	1000
# of Points	361
Start Time(min)	0.000
End Time(min)	6.000
Intensity Units	C
Intensity Multiplier	1
R.Time (min)	Intensity
0.00000	40.00
0.01667	40.00
0.03333	39.99
0.05000	39.99
0.06667	40.06
0.08333	40.03
0.10000	40.02
0.11667	40.00
0.13333	40.05
0.15000	40.06
0.16667	40.06
0.18333	40.00
0.20000	40.03
0.21667	40.05
0.23333	40.03
0.25000	39.97
0.26667	39.93
0.28333	39.93
0.30000	40.00
0.31667	40.00
0.33333	39.99
0.35000	40.00
0.36667	40.00
0.38333	40.00
0.40000	39.99
0.41667	39.98
0.43333	40.02
0.45000	39.99
0.46667	39.99
0.48333	40.00
0.50000	40.00
0.51667	40.02
0.53333	40.02
0.55000	39.99
0.56667	40.00
0.58333	39.97
0.60000	40.00
0.61667	39.99
0.63333	39.96
0.65000	39.97
0.66667	39.93
0.68333	39.98
0.70000	40.00
0.71667	40.02
0.73333	40.03
0.75000	40.02
0.76667	40.00
0.78333	40.00
0.80000	40.00
0.81667	39.99
0.83333	39.93
0.85000	40.00
0.86667	40.03
0.88333	40.00
0.90000	40.00
0.91667	39.99
0.93333	39.98
0.95000	40.00
0.96667	40.03
0.98333	40.00
1.00000	40.00
1.01667	39.99
1.03333	39.96
1.05000	40.00
1.06667	40.00
1.08333	40.00
1.10000	40.00
1.11667	39.99
1.13333	40.00
1.15000	40.00
1.16667	39.99
1.18333	40.00
1.20000	40.00
1.21667	39.99
1.23333	40.00
1.25000	39.99
1.26667	40.00
1.28333	40.02
1.30000	40.00
1.31667	40.00
1.33333	40.02
1.35000	40.02
1.36667	39.99
1.38333	39.98
1.40000	40.00
1.41667	39.99
1.43333	40.00
1.45000	40.00
1.46667	39.99
1.48333	40.00
1.50000	40.00
1.51667	40.00
1.53333	40.00
1.55000	39.99
1.56667	39.95
1.58333	39.95
1.60000	39.93
1.61667	39.93
1.63333	39.99
1.65000	39.99
1.66667	39.99
1.68333	39.99
1.70000	40.02
1.71667	40.03
1.73333	39.99
1.75000	39.96
1.76667	39.99
1.78333	40.00
1.80000	40.07
1.81667	40.02
1.83333	39.98
1.85000	40.00
1.86667	40.02
1.88333	40.05
1.90000	39.98
1.91667	39.98
1.93333	40.00
1.95000	40.00
1.96667	40.03
1.98333	40.06
2.00000	39.96
2.01667	39.96
2.03333	40.00
2.05000	39.99
2.06667	40.00
2.08333	40.00
2.10000	40.00
2.11667	39.93
2.13333	39.97
2.15000	40.02
2.16667	40.02
2.18333	40.02
2.20000	40.03
2.21667	40.02
2.23333	40.00
2.25000	39.99
2.26667	40.00
2.28333	40.00
2.30000	39.98
2.31667	39.99
2.33333	39.99
2.35000	40.00
2.36667	39.99
2.38333	40.00
2.40000	40.00
2.41667	40.00
2.43333	40.00
2.45000	40.00
2.46667	40.00
2.48333	40.00
2.50000	40.02
2.51667	40.02
2.53333	40.03
2.55000	39.99
2.56667	40.00
2.58333	39.99
2.60000	40.00
2.61667	40.00
2.63333	40.00
2.65000	39.99
2.66667	39.99
2.68333	40.00
2.70000	40.00
2.71667	39.99
2.73333	40.00
2.75000	40.00
2.76667	39.95
2.78333	39.99
2.80000	40.00
2.81667	40.00
2.83333	40.00
2.85000	40.02
2.86667	39.96
2.88333	39.99
2.90000	40.00
2.91667	40.00
2.93333	40.00
2.95000	39.93
2.96667	39.97
2.98333	40.00
3.00000	40.00
3.01667	40.00
3.03333	40.00
3.05000	39.97
3.06667	39.99
3.08333	40.00
3.10000	40.00
3.11667	39.96
3.13333	39.97
3.15000	40.00
3.16667	40.00
3.18333	40.00
3.20000	40.00
3.21667	40.00
3.23333	39.97
3.25000	39.99
3.26667	40.00
3.28333	40.00
3.30000	40.00
3.31667	40.02
3.33333	40.00
3.35000	40.00
3.36667	39.99
3.38333	39.99
3.40000	39.99
3.41667	40.00
3.43333	40.03
3.45000	40.02
3.46667	40.00
3.48333	40.00
3.50000	40.00
3.51667	40.00
3.53333	40.00
3.55000	39.99
3.56667	39.98
3.58333	39.93
3.60000	39.97
3.61667	40.00
3.63333	39.99
3.65000	40.03
3.66667	40.03
3.68333	40.00
3.70000	40.00
3.71667	39.99
3.73333	39.99
3.75000	40.00
3.76667	39.99
3.78333	39.96
3.80000	39.93
3.81667	40.00
3.83333	39.99
3.85000	40.03
3.86667	40.00
3.88333	40.00
3.90000	40.00
3.91667	40.00
3.93333	39.93
3.95000	39.99
3.96667	40.02
3.98333	39.99
4.00000	40.00
4.01667	40.03
4.03333	40.00
4.05000	39.99
4.06667	40.03
4.08333	40.00
4.10000	39.98
4.11667	39.97
4.13333	39.93
4.15000	39.95
4.16667	40.00
4.18333	40.02
4.20000	40.00
4.21667	39.99
4.23333	39.99
4.25000	40.00
4.26667	39.99
4.28333	40.00
4.30000	39.99
4.31667	40.00
4.33333	40.02
4.35000	40.00
4.36667	39.96
4.38333	39.93
4.40000	39.98
4.41667	40.00
4.43333	39.98
4.45000	39.96
4.46667	39.99
4.48333	39.99
4.50000	39.99
4.51667	40.00
4.53333	40.00
4.55000	40.00
4.56667	39.99
4.58333	39.97
4.60000	39.93
4.61667	39.93
4.63333	39.96
4.65000	40.00
4.66667	40.00
4.68333	40.00
4.70000	40.00
4.71667	40.02
4.73333	40.03
4.75000	39.99
4.76667	39.99
4.78333	40.00
4.80000	40.02
4.81667	40.00
4.83333	40.00
4.85000	40.02
4.86667	40.00
4.88333	40.00
4.90000	40.00
4.91667	40.00
4.93333	40.00
4.95000	40.00
4.96667	40.00
4.98333	39.98
5.00000	39.99
5.01667	39.99
5.03333	40.00
5.05000	40.00
5.06667	40.00
5.08333	39.96
5.10000	39.95
5.11667	39.98
5.13333	39.98
5.15000	39.93
5.16667	39.98
5.18333	40.00
5.20000	40.00
5.21667	39.98
5.23333	40.00
5.25000	40.00
5.26667	40.00
5.28333	40.02
5.30000	39.99
5.31667	40.00
5.33333	40.00
5.35000	40.02
5.36667	40.00
5.38333	40.00
5.40000	39.98
5.41667	40.02
5.43333	40.02
5.45000	40.05
5.46667	40.00
5.48333	40.00
5.50000	39.98
5.51667	39.98
5.53333	39.99
5.55000	39.96
5.56667	39.96
5.58333	39.97
5.60000	40.00
5.61667	40.00
5.63333	40.00
5.65000	40.00
5.66667	40.02
5.68333	40.00
5.70000	40.00
5.71667	40.00
5.73333	39.95
5.75000	39.95
5.76667	39.98
5.78333	40.00
5.80000	40.00
5.81667	40.00
5.83333	40.00
5.85000	40.00
5.86667	40.00
5.88333	40.00
5.90000	39.99
5.91667	39.91
5.93333	39.93
5.95000	39.96
5.96667	39.99
5.98333	40.00
6.00000	40.00

[Fraction Collection Report]
# of Fractions	0

