[Header]
Application Name	LCsolution
Version	1.25
Data File Name	C:\LabSolutions\Data\Caffeine\20161014\sample-new1.lcd
Output Date	2019/1/7
Output Time	下午 06:33:27

[File Information]
Type	Data File
Generated	2016/10/17 下午 12:46:16
Generated by	Admin
Modified	2016/10/17 下午 12:53:18
Modified by	Admin

[Sample Information]
Operator Name	Admin
Acquired	2016/10/17 下午 12:47:17
Sample Type	0:Unknown
Level	1
Sample Name	咖啡因-樣品20161017
Sample ID	
ISTD Amount 1	1
ISTD Amount 2	1
ISTD Amount 3	1
ISTD Amount 4	1
ISTD Amount 5	1
ISTD Amount 6	1
ISTD Amount 7	1
ISTD Amount 8	1
ISTD Amount 9	1
ISTD Amount 10	1
ISTD Amount 11	1
ISTD Amount 12	1
ISTD Amount 13	1
ISTD Amount 14	1
ISTD Amount 15	1
ISTD Amount 16	1
ISTD Amount 17	1
ISTD Amount 18	1
ISTD Amount 19	1
ISTD Amount 20	1
ISTD Amount 21	1
ISTD Amount 22	1
ISTD Amount 23	1
ISTD Amount 24	1
ISTD Amount 25	1
ISTD Amount 26	1
ISTD Amount 27	1
ISTD Amount 28	1
ISTD Amount 29	1
ISTD Amount 30	1
ISTD Amount 31	1
ISTD Amount 32	1
Sample Amount	1
Dilution Factor	1
Vial#	
Injection Volume	10

[Original Files]
Data File	C:\LabSolutions\Data\Caffeine\20161014\sample-new1.lcd
Method File	C:\LabSolutions\Method\Caffeine咖啡因\NEW Caffeine 280nm  XDB-C18 5um 4.6x150mm -10ul-1.0mL  B 30%MeOH in H2O.lcm
Batch File	
Report Format File	C:\LabSolutions\LCsolution\System\Default.lcr
Tuning File	

[File Description]


[Configuration]
# of Detectors	1
Detector ID	Detector A
Detector Name	Detector A
# of Channels	1

[Peak Table(Detector A-Ch1)]
# of Peaks	6
Peak#	R.Time	I.Time	F.Time	Area	Height	A/H	Conc.	Mark	ID#	Name	k'	Plate #	Plate Ht.	Tailing	Resolution	Sep.Factor	Conc. %	Norm Conc.
1	1.212	0.917	1.350	303796	25602	11.8660	0.0000	   			0.000	253	988.144	0.000	0.000	0.000	-0.0000	0.0000
2	1.476	1.350	1.975	909579	159345	5.7080	0.0000	 V 			0.218	1561	160.194	0.000	1.164	0.000	-0.0000	0.0000
3	2.107	1.975	2.458	34128	1386	24.6260	0.0000	 V 			0.738	30	8260.345	0.000	0.750	3.385	-0.0000	0.0000
4	2.987	2.650	3.133	31810	1375	23.1290	0.0000	 V 			1.464	181	1379.318	0.000	0.728	1.984	-0.0000	0.0000
5	3.242	3.133	3.583	21355	1012	21.1030	-0.2377	 V 	1	Caffeine-咖啡因	1.674	201	1242.207	0.000	0.282	1.143	100.0000	0.0000
6	4.594	3.958	6.000	4085132	216084	18.9050	0.0000	 V 			2.790	1395	179.240	1.022	1.924	1.666	-0.0000	0.0000

[Peak Table(PDA-Ch1)]
# of Peaks	0

[Compound Results(Detector A)]
# of IDs	1
ID#	Name	R.Time	Area	Height	Conc.	Curve	3rd	2nd	1st	Constant	Conc. %	Norm Conc.
1	Caffeine-咖啡因	3.242	21355	1012	-0.2377	Linear	0.0	0.0	2.603809e-005	-0.7937384	0.0000	0.0000

[Compound Results(PDA)]
# of IDs	0

[Group Results(Detector A)]
# of Groups	0

[Group Results(PDA)]
# of Groups	0

[LC Chromatogram(Detector A-Ch1)]
Interval(msec)	500
# of Points	721
Start Time(min)	0.000
End Time(min)	6.000
Intensity Units	mV
Intensity Multiplier	0.001
Wavelength(nm)	280
R.Time (min)	Intensity
0.00000	-28390
0.00833	-28390
0.01667	-0
0.02500	-1
0.03333	-1
0.04167	-1
0.05000	-1
0.05833	-2
0.06667	-2
0.07500	-2
0.08333	-1
0.09167	-1
0.10000	-1
0.10833	-1
0.11667	-2
0.12500	-2
0.13333	-2
0.14167	-2
0.15000	-1
0.15833	-1
0.16667	-2
0.17500	-2
0.18333	-2
0.19167	-2
0.20000	-3
0.20833	-3
0.21667	-1
0.22500	-1
0.23333	-2
0.24167	-3
0.25000	-3
0.25833	-2
0.26667	-1
0.27500	-1
0.28333	-1
0.29167	0
0.30000	0
0.30833	-0
0.31667	-1
0.32500	-1
0.33333	-2
0.34167	-3
0.35000	-2
0.35833	-3
0.36667	-4
0.37500	-4
0.38333	-4
0.39167	-3
0.40000	-1
0.40833	-1
0.41667	-3
0.42500	-4
0.43333	-4
0.44167	-3
0.45000	-3
0.45833	-2
0.46667	-1
0.47500	-0
0.48333	-1
0.49167	-2
0.50000	-3
0.50833	-3
0.51667	-3
0.52500	-3
0.53333	-2
0.54167	-2
0.55000	-2
0.55833	-3
0.56667	-2
0.57500	-1
0.58333	-1
0.59167	-1
0.60000	-2
0.60833	-1
0.61667	-1
0.62500	-2
0.63333	-2
0.64167	-2
0.65000	-3
0.65833	-3
0.66667	-3
0.67500	-3
0.68333	-3
0.69167	-2
0.70000	-2
0.70833	-2
0.71667	-2
0.72500	-3
0.73333	-3
0.74167	-3
0.75000	-3
0.75833	-3
0.76667	-3
0.77500	-3
0.78333	-2
0.79167	-2
0.80000	-3
0.80833	-3
0.81667	-3
0.82500	-3
0.83333	-3
0.84167	-2
0.85000	-2
0.85833	-2
0.86667	-2
0.87500	-2
0.88333	-2
0.89167	-2
0.90000	-2
0.90833	-2
0.91667	-1
0.92500	0
0.93333	4
0.94167	11
0.95000	22
0.95833	40
0.96667	67
0.97500	103
0.98333	153
0.99167	213
1.00000	280
1.00833	345
1.01667	404
1.02500	457
1.03333	524
1.04167	657
1.05000	966
1.05833	1607
1.06667	2739
1.07500	4454
1.08333	6726
1.09167	9405
1.10000	12258
1.10833	15035
1.11667	17517
1.12500	19558
1.13333	21094
1.14167	22141
1.15000	22779
1.15833	23123
1.16667	23295
1.17500	23422
1.18333	23649
1.19167	24106
1.20000	24757
1.20833	25375
1.21667	25646
1.22500	25329
1.23333	24369
1.24167	22889
1.25000	21116
1.25833	19288
1.26667	17586
1.27500	16113
1.28333	14893
1.29167	13895
1.30000	13068
1.30833	12367
1.31667	11770
1.32500	11281
1.33333	10922
1.34167	10725
1.35000	10719
1.35833	10917
1.36667	11312
1.37500	11854
1.38333	12470
1.39167	13095
1.40000	13726
1.40833	14512
1.41667	16255
1.42500	21987
1.43333	36021
1.44167	60212
1.45000	91091
1.45833	121554
1.46667	144918
1.47500	157720
1.48333	159430
1.49167	151558
1.50000	136796
1.50833	118190
1.51667	98474
1.52500	79681
1.53333	63032
1.54167	49045
1.55000	37754
1.55833	28911
1.56667	22140
1.57500	17042
1.58333	13248
1.59167	10438
1.60000	8353
1.60833	6797
1.61667	5627
1.62500	4739
1.63333	4061
1.64167	3543
1.65000	3148
1.65833	2847
1.66667	2619
1.67500	2446
1.68333	2315
1.69167	2212
1.70000	2132
1.70833	2067
1.71667	2013
1.72500	1968
1.73333	1929
1.74167	1895
1.75000	1863
1.75833	1832
1.76667	1802
1.77500	1773
1.78333	1744
1.79167	1714
1.80000	1685
1.80833	1656
1.81667	1627
1.82500	1600
1.83333	1575
1.84167	1553
1.85000	1535
1.85833	1517
1.86667	1500
1.87500	1483
1.88333	1469
1.89167	1457
1.90000	1446
1.90833	1437
1.91667	1431
1.92500	1424
1.93333	1419
1.94167	1413
1.95000	1409
1.95833	1405
1.96667	1403
1.97500	1402
1.98333	1404
1.99167	1408
2.00000	1415
2.00833	1423
2.01667	1433
2.02500	1447
2.03333	1463
2.04167	1479
2.05000	1495
2.05833	1510
2.06667	1525
2.07500	1538
2.08333	1550
2.09167	1559
2.10000	1565
2.10833	1568
2.11667	1567
2.12500	1563
2.13333	1555
2.14167	1541
2.15000	1525
2.15833	1509
2.16667	1498
2.17500	1491
2.18333	1489
2.19167	1490
2.20000	1491
2.20833	1490
2.21667	1486
2.22500	1478
2.23333	1468
2.24167	1456
2.25000	1439
2.25833	1421
2.26667	1403
2.27500	1384
2.28333	1364
2.29167	1344
2.30000	1325
2.30833	1309
2.31667	1296
2.32500	1282
2.33333	1267
2.34167	1251
2.35000	1233
2.35833	1214
2.36667	1193
2.37500	1174
2.38333	1155
2.39167	1138
2.40000	1121
2.40833	1107
2.41667	1096
2.42500	1087
2.43333	1080
2.44167	1074
2.45000	1071
2.45833	1069
2.46667	1070
2.47500	1071
2.48333	1074
2.49167	1075
2.50000	1078
2.50833	1082
2.51667	1086
2.52500	1091
2.53333	1095
2.54167	1100
2.55000	1104
2.55833	1107
2.56667	1109
2.57500	1110
2.58333	1112
2.59167	1113
2.60000	1115
2.60833	1115
2.61667	1114
2.62500	1115
2.63333	1116
2.64167	1117
2.65000	1118
2.65833	1120
2.66667	1124
2.67500	1129
2.68333	1135
2.69167	1142
2.70000	1152
2.70833	1164
2.71667	1176
2.72500	1190
2.73333	1206
2.74167	1225
2.75000	1243
2.75833	1260
2.76667	1277
2.77500	1294
2.78333	1312
2.79167	1333
2.80000	1354
2.80833	1377
2.81667	1399
2.82500	1421
2.83333	1442
2.84167	1461
2.85000	1480
2.85833	1496
2.86667	1508
2.87500	1518
2.88333	1526
2.89167	1533
2.90000	1540
2.90833	1549
2.91667	1560
2.92500	1573
2.93333	1588
2.94167	1606
2.95000	1625
2.95833	1644
2.96667	1663
2.97500	1678
2.98333	1688
2.99167	1692
3.00000	1688
3.00833	1675
3.01667	1653
3.02500	1622
3.03333	1584
3.04167	1539
3.05000	1490
3.05833	1437
3.06667	1386
3.07500	1336
3.08333	1289
3.09167	1245
3.10000	1207
3.10833	1177
3.11667	1154
3.12500	1139
3.13333	1132
3.14167	1134
3.15000	1145
3.15833	1162
3.16667	1184
3.17500	1210
3.18333	1237
3.19167	1264
3.20000	1290
3.20833	1314
3.21667	1334
3.22500	1351
3.23333	1363
3.24167	1368
3.25000	1368
3.25833	1364
3.26667	1355
3.27500	1342
3.28333	1329
3.29167	1315
3.30000	1303
3.30833	1291
3.31667	1279
3.32500	1267
3.33333	1257
3.34167	1247
3.35000	1237
3.35833	1229
3.36667	1221
3.37500	1212
3.38333	1201
3.39167	1190
3.40000	1178
3.40833	1166
3.41667	1151
3.42500	1137
3.43333	1122
3.44167	1106
3.45000	1089
3.45833	1072
3.46667	1055
3.47500	1039
3.48333	1023
3.49167	1007
3.50000	992
3.50833	978
3.51667	966
3.52500	955
3.53333	946
3.54167	938
3.55000	932
3.55833	927
3.56667	924
3.57500	922
3.58333	921
3.59167	923
3.60000	925
3.60833	930
3.61667	934
3.62500	939
3.63333	944
3.64167	948
3.65000	951
3.65833	953
3.66667	954
3.67500	952
3.68333	951
3.69167	948
3.70000	944
3.70833	939
3.71667	932
3.72500	924
3.73333	916
3.74167	910
3.75000	902
3.75833	895
3.76667	887
3.77500	879
3.78333	871
3.79167	863
3.80000	857
3.80833	853
3.81667	848
3.82500	843
3.83333	838
3.84167	834
3.85000	831
3.85833	828
3.86667	825
3.87500	821
3.88333	818
3.89167	816
3.90000	814
3.90833	813
3.91667	813
3.92500	812
3.93333	812
3.94167	811
3.95000	810
3.95833	810
3.96667	810
3.97500	811
3.98333	813
3.99167	815
4.00000	816
4.00833	818
4.01667	821
4.02500	824
4.03333	827
4.04167	830
4.05000	834
4.05833	838
4.06667	843
4.07500	848
4.08333	852
4.09167	857
4.10000	863
4.10833	870
4.11667	878
4.12500	889
4.13333	902
4.14167	919
4.15000	940
4.15833	965
4.16667	997
4.17500	1036
4.18333	1087
4.19167	1155
4.20000	1243
4.20833	1361
4.21667	1520
4.22500	1734
4.23333	2019
4.24167	2394
4.25000	2888
4.25833	3528
4.26667	4351
4.27500	5398
4.28333	6716
4.29167	8352
4.30000	10355
4.30833	12775
4.31667	15656
4.32500	19037
4.33333	22951
4.34167	27416
4.35000	32440
4.35833	38017
4.36667	44130
4.37500	50749
4.38333	57835
4.39167	65340
4.40000	73213
4.40833	81396
4.41667	89827
4.42500	98442
4.43333	107171
4.44167	115944
4.45000	124691
4.45833	133336
4.46667	141807
4.47500	150032
4.48333	157944
4.49167	165484
4.50000	172598
4.50833	179246
4.51667	185399
4.52500	191039
4.53333	196154
4.54167	200743
4.55000	204797
4.55833	208311
4.56667	211265
4.57500	213627
4.58333	215353
4.59167	216384
4.60000	216648
4.60833	216067
4.61667	214561
4.62500	212062
4.63333	208523
4.64167	203919
4.65000	198257
4.65833	191580
4.66667	183967
4.67500	175528
4.68333	166401
4.69167	156743
4.70000	146725
4.70833	136518
4.71667	126287
4.72500	116186
4.73333	106350
4.74167	96891
4.75000	87898
4.75833	79434
4.76667	71542
4.77500	64242
4.78333	57541
4.79167	51425
4.80000	45876
4.80833	40863
4.81667	36352
4.82500	32307
4.83333	28691
4.84167	25467
4.85000	22598
4.85833	20053
4.86667	17798
4.87500	15805
4.88333	14047
4.89167	12498
4.90000	11135
4.90833	9940
4.91667	8893
4.92500	7975
4.93333	7173
4.94167	6473
4.95000	5861
4.95833	5328
4.96667	4864
4.97500	4460
4.98333	4107
4.99167	3798
5.00000	3528
5.00833	3293
5.01667	3088
5.02500	2908
5.03333	2748
5.04167	2608
5.05000	2483
5.05833	2372
5.06667	2273
5.07500	2184
5.08333	2104
5.09167	2032
5.10000	1966
5.10833	1906
5.11667	1851
5.12500	1800
5.13333	1752
5.14167	1709
5.15000	1670
5.15833	1633
5.16667	1598
5.17500	1564
5.18333	1534
5.19167	1504
5.20000	1476
5.20833	1451
5.21667	1426
5.22500	1403
5.23333	1380
5.24167	1358
5.25000	1338
5.25833	1319
5.26667	1301
5.27500	1284
5.28333	1266
5.29167	1250
5.30000	1234
5.30833	1217
5.31667	1202
5.32500	1187
5.33333	1172
5.34167	1159
5.35000	1146
5.35833	1134
5.36667	1123
5.37500	1112
5.38333	1100
5.39167	1090
5.40000	1080
5.40833	1069
5.41667	1060
5.42500	1051
5.43333	1042
5.44167	1034
5.45000	1026
5.45833	1019
5.46667	1013
5.47500	1008
5.48333	1002
5.49167	997
5.50000	991
5.50833	984
5.51667	979
5.52500	974
5.53333	969
5.54167	965
5.55000	960
5.55833	956
5.56667	951
5.57500	947
5.58333	942
5.59167	938
5.60000	935
5.60833	932
5.61667	928
5.62500	925
5.63333	921
5.64167	918
5.65000	914
5.65833	911
5.66667	908
5.67500	905
5.68333	903
5.69167	900
5.70000	898
5.70833	895
5.71667	892
5.72500	889
5.73333	887
5.74167	884
5.75000	881
5.75833	878
5.76667	875
5.77500	872
5.78333	869
5.79167	865
5.80000	860
5.80833	855
5.81667	851
5.82500	846
5.83333	841
5.84167	838
5.85000	834
5.85833	830
5.86667	825
5.87500	821
5.88333	816
5.89167	812
5.90000	808
5.90833	803
5.91667	799
5.92500	796
5.93333	794
5.94167	791
5.95000	789
5.95833	786
5.96667	784
5.97500	783
5.98333	783
5.99167	781
6.00000	780

[LC Status Trace(Pump A Pressure)]
Interval(msec)	1000
# of Points	361
Start Time(min)	0.000
End Time(min)	6.000
Intensity Units	kgf/cm2
Intensity Multiplier	1
R.Time (min)	Intensity
0.00000	157.0
0.01667	157.0
0.03333	155.7
0.05000	156.1
0.06667	157.4
0.08333	159.3
0.10000	159.9
0.11667	160.1
0.13333	160.0
0.15000	160.1
0.16667	159.9
0.18333	159.6
0.20000	159.2
0.21667	159.1
0.23333	158.9
0.25000	158.7
0.26667	158.7
0.28333	158.3
0.30000	158.3
0.31667	158.3
0.33333	158.2
0.35000	158.0
0.36667	158.0
0.38333	157.8
0.40000	157.6
0.41667	157.4
0.43333	157.6
0.45000	157.4
0.46667	157.2
0.48333	157.2
0.50000	157.4
0.51667	157.4
0.53333	157.2
0.55000	157.2
0.56667	157.1
0.58333	157.1
0.60000	157.0
0.61667	157.2
0.63333	157.0
0.65000	156.9
0.66667	157.0
0.68333	157.0
0.70000	156.9
0.71667	157.0
0.73333	156.9
0.75000	157.0
0.76667	156.9
0.78333	157.1
0.80000	156.7
0.81667	156.9
0.83333	157.1
0.85000	157.0
0.86667	156.9
0.88333	156.7
0.90000	157.0
0.91667	157.1
0.93333	157.0
0.95000	157.0
0.96667	156.9
0.98333	156.9
1.00000	156.9
1.01667	156.9
1.03333	157.0
1.05000	156.9
1.06667	156.9
1.08333	156.9
1.10000	157.0
1.11667	156.9
1.13333	156.9
1.15000	156.9
1.16667	157.1
1.18333	157.0
1.20000	157.0
1.21667	156.9
1.23333	156.9
1.25000	156.9
1.26667	157.0
1.28333	157.0
1.30000	157.0
1.31667	157.0
1.33333	157.0
1.35000	156.9
1.36667	157.0
1.38333	156.9
1.40000	157.1
1.41667	157.1
1.43333	157.1
1.45000	157.1
1.46667	156.9
1.48333	157.0
1.50000	157.0
1.51667	156.9
1.53333	156.7
1.55000	157.0
1.56667	156.6
1.58333	156.9
1.60000	156.9
1.61667	156.9
1.63333	156.7
1.65000	156.9
1.66667	156.7
1.68333	156.9
1.70000	156.9
1.71667	156.7
1.73333	156.6
1.75000	156.9
1.76667	156.6
1.78333	157.0
1.80000	156.9
1.81667	156.9
1.83333	156.9
1.85000	156.6
1.86667	156.9
1.88333	156.9
1.90000	156.9
1.91667	157.0
1.93333	156.7
1.95000	157.0
1.96667	157.0
1.98333	156.7
2.00000	157.1
2.01667	156.9
2.03333	156.9
2.05000	156.9
2.06667	156.9
2.08333	157.0
2.10000	157.0
2.11667	156.9
2.13333	157.0
2.15000	157.0
2.16667	156.9
2.18333	156.7
2.20000	157.0
2.21667	157.0
2.23333	157.0
2.25000	157.0
2.26667	157.0
2.28333	157.1
2.30000	157.1
2.31667	157.1
2.33333	156.9
2.35000	157.0
2.36667	156.9
2.38333	157.1
2.40000	157.1
2.41667	157.1
2.43333	157.1
2.45000	157.0
2.46667	156.9
2.48333	157.0
2.50000	157.1
2.51667	157.0
2.53333	156.9
2.55000	157.0
2.56667	156.9
2.58333	156.7
2.60000	156.7
2.61667	156.9
2.63333	156.9
2.65000	156.9
2.66667	157.0
2.68333	157.1
2.70000	157.1
2.71667	156.9
2.73333	157.0
2.75000	156.9
2.76667	156.7
2.78333	156.9
2.80000	156.9
2.81667	156.9
2.83333	156.7
2.85000	156.9
2.86667	156.9
2.88333	157.1
2.90000	156.9
2.91667	156.9
2.93333	156.9
2.95000	156.9
2.96667	156.5
2.98333	156.9
3.00000	157.0
3.01667	156.7
3.03333	156.9
3.05000	157.0
3.06667	156.7
3.08333	157.0
3.10000	156.9
3.11667	156.7
3.13333	156.9
3.15000	156.9
3.16667	156.7
3.18333	156.9
3.20000	156.7
3.21667	156.9
3.23333	156.9
3.25000	157.0
3.26667	157.0
3.28333	156.7
3.30000	156.9
3.31667	156.9
3.33333	156.9
3.35000	156.7
3.36667	156.7
3.38333	156.7
3.40000	156.7
3.41667	156.6
3.43333	156.7
3.45000	156.6
3.46667	156.7
3.48333	156.6
3.50000	156.6
3.51667	156.5
3.53333	156.3
3.55000	156.6
3.56667	156.6
3.58333	156.7
3.60000	156.6
3.61667	156.6
3.63333	156.6
3.65000	156.6
3.66667	156.5
3.68333	156.5
3.70000	156.5
3.71667	156.6
3.73333	156.7
3.75000	156.6
3.76667	156.6
3.78333	156.7
3.80000	156.7
3.81667	156.7
3.83333	156.6
3.85000	156.6
3.86667	156.7
3.88333	156.6
3.90000	156.6
3.91667	156.6
3.93333	156.7
3.95000	156.5
3.96667	156.5
3.98333	156.6
4.00000	156.6
4.01667	156.5
4.03333	156.5
4.05000	156.5
4.06667	156.6
4.08333	156.5
4.10000	156.7
4.11667	156.5
4.13333	156.5
4.15000	156.5
4.16667	156.6
4.18333	156.3
4.20000	156.3
4.21667	156.5
4.23333	156.3
4.25000	156.3
4.26667	156.3
4.28333	156.3
4.30000	156.3
4.31667	156.3
4.33333	156.3
4.35000	156.5
4.36667	156.5
4.38333	156.3
4.40000	156.3
4.41667	156.5
4.43333	156.3
4.45000	156.3
4.46667	156.5
4.48333	156.5
4.50000	156.3
4.51667	156.3
4.53333	156.5
4.55000	156.3
4.56667	156.3
4.58333	156.5
4.60000	156.3
4.61667	156.3
4.63333	156.1
4.65000	156.2
4.66667	156.2
4.68333	156.2
4.70000	156.2
4.71667	156.2
4.73333	156.3
4.75000	156.2
4.76667	156.3
4.78333	156.2
4.80000	156.2
4.81667	156.3
4.83333	156.1
4.85000	156.2
4.86667	156.2
4.88333	156.3
4.90000	156.2
4.91667	156.2
4.93333	156.2
4.95000	156.1
4.96667	156.1
4.98333	156.2
5.00000	156.2
5.01667	155.9
5.03333	156.1
5.05000	156.1
5.06667	156.2
5.08333	156.1
5.10000	156.2
5.11667	156.1
5.13333	156.2
5.15000	156.1
5.16667	156.1
5.18333	156.2
5.20000	156.2
5.21667	156.2
5.23333	156.1
5.25000	156.2
5.26667	156.1
5.28333	156.3
5.30000	156.2
5.31667	156.2
5.33333	156.1
5.35000	155.9
5.36667	156.1
5.38333	156.1
5.40000	156.1
5.41667	156.1
5.43333	156.3
5.45000	156.2
5.46667	156.2
5.48333	156.1
5.50000	156.1
5.51667	156.1
5.53333	156.1
5.55000	155.9
5.56667	156.2
5.58333	156.2
5.60000	156.3
5.61667	156.3
5.63333	156.1
5.65000	156.1
5.66667	156.1
5.68333	156.1
5.70000	156.3
5.71667	156.1
5.73333	156.1
5.75000	156.1
5.76667	156.1
5.78333	156.1
5.80000	156.2
5.81667	156.2
5.83333	155.9
5.85000	155.9
5.86667	156.1
5.88333	156.1
5.90000	156.2
5.91667	156.2
5.93333	156.2
5.95000	156.3
5.96667	156.2
5.98333	156.3
6.00000	156.2

[LC Status Trace(UV Cell Temp.)]
Interval(msec)	1000
# of Points	361
Start Time(min)	0.000
End Time(min)	6.000
Intensity Units	C
Intensity Multiplier	1
R.Time (min)	Intensity
0.00000	40.02
0.01667	40.02
0.03333	40.00
0.05000	39.99
0.06667	40.00
0.08333	40.00
0.10000	39.95
0.11667	39.97
0.13333	40.00
0.15000	40.00
0.16667	40.00
0.18333	40.00
0.20000	40.00
0.21667	40.00
0.23333	40.00
0.25000	40.00
0.26667	40.00
0.28333	40.00
0.30000	40.00
0.31667	40.02
0.33333	40.00
0.35000	39.99
0.36667	40.00
0.38333	40.00
0.40000	40.02
0.41667	40.00
0.43333	40.00
0.45000	39.97
0.46667	40.00
0.48333	40.00
0.50000	40.00
0.51667	40.05
0.53333	40.00
0.55000	39.93
0.56667	39.93
0.58333	39.99
0.60000	40.02
0.61667	40.00
0.63333	40.00
0.65000	40.00
0.66667	40.00
0.68333	40.00
0.70000	39.97
0.71667	39.93
0.73333	39.99
0.75000	40.02
0.76667	40.00
0.78333	40.00
0.80000	40.00
0.81667	39.98
0.83333	39.93
0.85000	39.98
0.86667	39.99
0.88333	39.99
0.90000	39.99
0.91667	39.99
0.93333	40.00
0.95000	40.00
0.96667	40.00
0.98333	39.97
1.00000	39.93
1.01667	39.91
1.03333	40.00
1.05000	40.00
1.06667	40.00
1.08333	40.00
1.10000	40.00
1.11667	40.00
1.13333	40.00
1.15000	40.00
1.16667	40.02
1.18333	39.97
1.20000	39.98
1.21667	40.00
1.23333	40.00
1.25000	40.00
1.26667	40.00
1.28333	39.99
1.30000	40.02
1.31667	40.00
1.33333	39.99
1.35000	39.96
1.36667	39.96
1.38333	39.99
1.40000	40.03
1.41667	40.00
1.43333	39.99
1.45000	40.00
1.46667	40.00
1.48333	40.00
1.50000	40.00
1.51667	39.99
1.53333	39.99
1.55000	39.98
1.56667	39.97
1.58333	39.98
1.60000	39.96
1.61667	39.98
1.63333	39.98
1.65000	39.91
1.66667	39.91
1.68333	39.93
1.70000	39.93
1.71667	39.93
1.73333	39.95
1.75000	39.97
1.76667	39.97
1.78333	39.97
1.80000	39.95
1.81667	39.93
1.83333	39.93
1.85000	39.98
1.86667	39.99
1.88333	39.97
1.90000	39.95
1.91667	39.98
1.93333	39.99
1.95000	40.02
1.96667	40.03
1.98333	40.00
2.00000	40.00
2.01667	40.00
2.03333	40.00
2.05000	39.99
2.06667	40.00
2.08333	40.00
2.10000	40.00
2.11667	40.00
2.13333	40.00
2.15000	40.03
2.16667	39.99
2.18333	39.99
2.20000	40.00
2.21667	40.00
2.23333	39.99
2.25000	39.97
2.26667	39.93
2.28333	39.99
2.30000	40.00
2.31667	39.99
2.33333	39.99
2.35000	39.99
2.36667	40.00
2.38333	40.00
2.40000	40.00
2.41667	40.00
2.43333	40.00
2.45000	39.95
2.46667	39.98
2.48333	39.93
2.50000	39.93
2.51667	39.93
2.53333	39.93
2.55000	39.91
2.56667	39.97
2.58333	40.00
2.60000	40.00
2.61667	40.00
2.63333	40.02
2.65000	40.00
2.66667	40.00
2.68333	39.99
2.70000	39.95
2.71667	39.93
2.73333	39.99
2.75000	40.00
2.76667	40.00
2.78333	40.02
2.80000	40.02
2.81667	40.05
2.83333	39.93
2.85000	40.00
2.86667	40.00
2.88333	40.00
2.90000	40.00
2.91667	40.00
2.93333	39.91
2.95000	39.99
2.96667	40.03
2.98333	40.00
3.00000	40.00
3.01667	40.02
3.03333	39.99
3.05000	39.98
3.06667	39.93
3.08333	40.00
3.10000	40.00
3.11667	40.05
3.13333	40.05
3.15000	40.02
3.16667	39.99
3.18333	40.02
3.20000	40.00
3.21667	40.02
3.23333	40.00
3.25000	40.00
3.26667	40.00
3.28333	40.00
3.30000	40.00
3.31667	40.00
3.33333	40.00
3.35000	39.99
3.36667	40.00
3.38333	40.00
3.40000	40.00
3.41667	40.00
3.43333	40.00
3.45000	39.99
3.46667	40.00
3.48333	40.05
3.50000	40.06
3.51667	40.02
3.53333	40.02
3.55000	39.98
3.56667	40.00
3.58333	39.96
3.60000	39.93
3.61667	39.90
3.63333	39.97
3.65000	40.00
3.66667	39.98
3.68333	40.00
3.70000	40.00
3.71667	40.00
3.73333	40.00
3.75000	40.00
3.76667	40.00
3.78333	40.03
3.80000	40.00
3.81667	40.02
3.83333	40.00
3.85000	40.00
3.86667	40.00
3.88333	40.00
3.90000	40.02
3.91667	40.00
3.93333	40.00
3.95000	40.00
3.96667	40.00
3.98333	40.00
4.00000	40.00
4.01667	39.97
4.03333	39.99
4.05000	40.00
4.06667	40.00
4.08333	40.00
4.10000	40.00
4.11667	40.00
4.13333	40.00
4.15000	40.00
4.16667	39.99
4.18333	40.00
4.20000	40.05
4.21667	40.05
4.23333	39.96
4.25000	39.93
4.26667	39.99
4.28333	40.00
4.30000	40.00
4.31667	40.00
4.33333	40.00
4.35000	40.00
4.36667	40.00
4.38333	40.00
4.40000	39.99
4.41667	39.91
4.43333	40.00
4.45000	40.02
4.46667	40.03
4.48333	40.03
4.50000	40.02
4.51667	40.00
4.53333	40.00
4.55000	40.00
4.56667	40.02
4.58333	40.00
4.60000	40.00
4.61667	40.00
4.63333	40.00
4.65000	39.99
4.66667	39.99
4.68333	40.00
4.70000	40.03
4.71667	40.03
4.73333	40.02
4.75000	40.00
4.76667	40.02
4.78333	40.00
4.80000	40.00
4.81667	40.00
4.83333	40.00
4.85000	39.99
4.86667	40.00
4.88333	40.02
4.90000	40.00
4.91667	40.02
4.93333	40.00
4.95000	40.03
4.96667	40.05
4.98333	40.00
5.00000	40.00
5.01667	39.99
5.03333	40.00
5.05000	40.05
5.06667	40.00
5.08333	39.99
5.10000	39.97
5.11667	39.98
5.13333	39.98
5.15000	39.97
5.16667	39.93
5.18333	39.96
5.20000	39.97
5.21667	39.98
5.23333	39.96
5.25000	39.93
5.26667	39.95
5.28333	39.91
5.30000	39.93
5.31667	39.96
5.33333	39.93
5.35000	39.98
5.36667	39.96
5.38333	40.03
5.40000	40.00
5.41667	40.00
5.43333	39.99
5.45000	39.98
5.46667	40.02
5.48333	40.03
5.50000	40.06
5.51667	40.05
5.53333	40.00
5.55000	39.98
5.56667	40.00
5.58333	39.96
5.60000	39.96
5.61667	39.99
5.63333	40.00
5.65000	40.07
5.66667	40.08
5.68333	40.02
5.70000	40.00
5.71667	40.00
5.73333	40.02
5.75000	39.99
5.76667	39.99
5.78333	39.95
5.80000	39.93
5.81667	39.93
5.83333	39.95
5.85000	39.98
5.86667	40.00
5.88333	40.03
5.90000	40.00
5.91667	40.00
5.93333	39.99
5.95000	40.02
5.96667	40.00
5.98333	40.00
6.00000	39.99

[Fraction Collection Report]
# of Fractions	0

