[Header]
Application Name	LCsolution
Version	1.25
Data File Name	C:\LabSolutions\Data\Caffeine\20161014\sample-old1.lcd
Output Date	2019/1/7
Output Time	下午 06:33:35

[File Information]
Type	Data File
Generated	2016/10/17 下午 12:54:52
Generated by	Admin
Modified	2016/10/17 下午 01:01:07
Modified by	Admin

[Sample Information]
Operator Name	Admin
Acquired	2016/10/17 下午 12:55:05
Sample Type	0:Unknown
Level	1
Sample Name	咖啡因-樣品20161017
Sample ID	
ISTD Amount 1	1
ISTD Amount 2	1
ISTD Amount 3	1
ISTD Amount 4	1
ISTD Amount 5	1
ISTD Amount 6	1
ISTD Amount 7	1
ISTD Amount 8	1
ISTD Amount 9	1
ISTD Amount 10	1
ISTD Amount 11	1
ISTD Amount 12	1
ISTD Amount 13	1
ISTD Amount 14	1
ISTD Amount 15	1
ISTD Amount 16	1
ISTD Amount 17	1
ISTD Amount 18	1
ISTD Amount 19	1
ISTD Amount 20	1
ISTD Amount 21	1
ISTD Amount 22	1
ISTD Amount 23	1
ISTD Amount 24	1
ISTD Amount 25	1
ISTD Amount 26	1
ISTD Amount 27	1
ISTD Amount 28	1
ISTD Amount 29	1
ISTD Amount 30	1
ISTD Amount 31	1
ISTD Amount 32	1
Sample Amount	1
Dilution Factor	1
Vial#	
Injection Volume	10

[Original Files]
Data File	C:\LabSolutions\Data\Caffeine\20161014\sample-old1.lcd
Method File	C:\LabSolutions\Method\Caffeine咖啡因\NEW Caffeine 280nm  XDB-C18 5um 4.6x150mm -10ul-1.0mL  B 30%MeOH in H2O.lcm
Batch File	
Report Format File	C:\LabSolutions\LCsolution\System\Default.lcr
Tuning File	

[File Description]


[Configuration]
# of Detectors	1
Detector ID	Detector A
Detector Name	Detector A
# of Channels	1

[Peak Table(Detector A-Ch1)]
# of Peaks	7
Peak#	R.Time	I.Time	F.Time	Area	Height	A/H	Conc.	Mark	ID#	Name	k'	Plate #	Plate Ht.	Tailing	Resolution	Sep.Factor	Conc. %	Norm Conc.
1	1.142	0.933	1.317	549232	52810	10.4000	0.0000	   			0.000	226	1104.943	0.000	0.000	0.000	-0.0000	0.0000
2	1.474	1.317	2.067	1092964	188312	5.8040	0.0000	 V 			0.290	1714	145.827	0.000	1.486	0.000	-0.0000	0.0000
3	2.248	2.067	2.475	23415	1121	20.8920	0.0000	 V 			0.968	62	4057.209	0.000	1.202	3.335	-0.0000	0.0000
4	2.861	2.675	3.175	22354	998	22.4060	0.0000	 V 			1.505	193	1296.596	0.000	0.623	1.555	-0.0000	0.0000
5	3.507	3.175	3.792	20003	696	28.7580	0.0000	 V 			2.070	263	949.058	0.000	0.765	1.376	-0.0000	0.0000
6	4.028	3.792	4.192	17636	936	18.8450	-0.3345	 V 	1	Caffeine-咖啡因	2.526	337	742.525	0.000	0.599	1.221	100.0000	0.0000
7	4.578	4.192	5.458	4114384	242070	16.9970	0.0000	 V 			3.008	1692	147.755	1.094	0.831	1.191	-0.0000	0.0000

[Peak Table(PDA-Ch1)]
# of Peaks	0

[Compound Results(Detector A)]
# of IDs	1
ID#	Name	R.Time	Area	Height	Conc.	Curve	3rd	2nd	1st	Constant	Conc. %	Norm Conc.
1	Caffeine-咖啡因	4.028	17636	936	-0.3345	Linear	0.0	0.0	2.603809e-005	-0.7937384	0.0000	0.0000

[Compound Results(PDA)]
# of IDs	0

[Group Results(Detector A)]
# of Groups	0

[Group Results(PDA)]
# of Groups	0

[LC Chromatogram(Detector A-Ch1)]
Interval(msec)	500
# of Points	721
Start Time(min)	0.000
End Time(min)	6.000
Intensity Units	mV
Intensity Multiplier	0.001
Wavelength(nm)	280
R.Time (min)	Intensity
0.00000	567
0.00833	567
0.01667	362
0.02500	-2
0.03333	-4
0.04167	-6
0.05000	-8
0.05833	-10
0.06667	-12
0.07500	-14
0.08333	-15
0.09167	-16
0.10000	-18
0.10833	-20
0.11667	-22
0.12500	-22
0.13333	-23
0.14167	-23
0.15000	-24
0.15833	-25
0.16667	-27
0.17500	-29
0.18333	-32
0.19167	-34
0.20000	-36
0.20833	-39
0.21667	-41
0.22500	-42
0.23333	-43
0.24167	-44
0.25000	-45
0.25833	-46
0.26667	-47
0.27500	-49
0.28333	-50
0.29167	-52
0.30000	-54
0.30833	-55
0.31667	-55
0.32500	-56
0.33333	-57
0.34167	-57
0.35000	-57
0.35833	-57
0.36667	-58
0.37500	-59
0.38333	-59
0.39167	-57
0.40000	-54
0.40833	-55
0.41667	-58
0.42500	-61
0.43333	-62
0.44167	-64
0.45000	-66
0.45833	-67
0.46667	-68
0.47500	-69
0.48333	-71
0.49167	-71
0.50000	-72
0.50833	-72
0.51667	-73
0.52500	-74
0.53333	-74
0.54167	-75
0.55000	-76
0.55833	-76
0.56667	-77
0.57500	-78
0.58333	-79
0.59167	-80
0.60000	-81
0.60833	-82
0.61667	-82
0.62500	-84
0.63333	-85
0.64167	-85
0.65000	-85
0.65833	-86
0.66667	-87
0.67500	-88
0.68333	-89
0.69167	-89
0.70000	-90
0.70833	-91
0.71667	-92
0.72500	-94
0.73333	-96
0.74167	-96
0.75000	-96
0.75833	-97
0.76667	-98
0.77500	-99
0.78333	-100
0.79167	-101
0.80000	-101
0.80833	-102
0.81667	-103
0.82500	-105
0.83333	-107
0.84167	-108
0.85000	-109
0.85833	-110
0.86667	-111
0.87500	-112
0.88333	-113
0.89167	-115
0.90000	-116
0.90833	-117
0.91667	-118
0.92500	-118
0.93333	-118
0.94167	-115
0.95000	-106
0.95833	-88
0.96667	-63
0.97500	-30
0.98333	14
0.99167	69
1.00000	131
1.00833	194
1.01667	255
1.02500	330
1.03333	495
1.04167	955
1.05000	2058
1.05833	4223
1.06667	7783
1.07500	12828
1.08333	19131
1.09167	26178
1.10000	33294
1.10833	39807
1.11667	45181
1.12500	49113
1.13333	51554
1.14167	52666
1.15000	52723
1.15833	52027
1.16667	50847
1.17500	49399
1.18333	47813
1.19167	46112
1.20000	44245
1.20833	42143
1.21667	39786
1.22500	37241
1.23333	34654
1.24167	32194
1.25000	29988
1.25833	28073
1.26667	26410
1.27500	24935
1.28333	23617
1.29167	22481
1.30000	21614
1.30833	21122
1.31667	21082
1.32500	21486
1.33333	22227
1.34167	23128
1.35000	23996
1.35833	24678
1.36667	25095
1.37500	25256
1.38333	25238
1.39167	25155
1.40000	25131
1.40833	25335
1.41667	26370
1.42500	31950
1.43333	48765
1.44167	78088
1.45000	114544
1.45833	149650
1.46667	175827
1.47500	188275
1.48333	185906
1.49167	171146
1.50000	148491
1.50833	122686
1.51667	97488
1.52500	75201
1.53333	56811
1.54167	42380
1.55000	31466
1.55833	23427
1.56667	17610
1.57500	13441
1.58333	10461
1.59167	8315
1.60000	6746
1.60833	5578
1.61667	4692
1.62500	4008
1.63333	3477
1.64167	3065
1.65000	2750
1.65833	2511
1.66667	2331
1.67500	2195
1.68333	2093
1.69167	2016
1.70000	1954
1.70833	1903
1.71667	1858
1.72500	1818
1.73333	1781
1.74167	1744
1.75000	1707
1.75833	1668
1.76667	1628
1.77500	1586
1.78333	1543
1.79167	1499
1.80000	1455
1.80833	1414
1.81667	1375
1.82500	1338
1.83333	1304
1.84167	1273
1.85000	1246
1.85833	1225
1.86667	1208
1.87500	1195
1.88333	1186
1.89167	1179
1.90000	1175
1.90833	1172
1.91667	1169
1.92500	1166
1.93333	1161
1.94167	1154
1.95000	1146
1.95833	1135
1.96667	1124
1.97500	1111
1.98333	1098
1.99167	1086
2.00000	1073
2.00833	1061
2.01667	1050
2.02500	1041
2.03333	1034
2.04167	1029
2.05000	1025
2.05833	1023
2.06667	1022
2.07500	1022
2.08333	1025
2.09167	1030
2.10000	1036
2.10833	1042
2.11667	1048
2.12500	1054
2.13333	1062
2.14167	1068
2.15000	1075
2.15833	1084
2.16667	1095
2.17500	1107
2.18333	1119
2.19167	1132
2.20000	1145
2.20833	1160
2.21667	1175
2.22500	1187
2.23333	1195
2.24167	1199
2.25000	1202
2.25833	1201
2.26667	1197
2.27500	1192
2.28333	1186
2.29167	1179
2.30000	1170
2.30833	1160
2.31667	1149
2.32500	1135
2.33333	1116
2.34167	1091
2.35000	1059
2.35833	1025
2.36667	990
2.37500	956
2.38333	923
2.39167	893
2.40000	868
2.40833	845
2.41667	828
2.42500	813
2.43333	802
2.44167	794
2.45000	789
2.45833	785
2.46667	782
2.47500	781
2.48333	781
2.49167	782
2.50000	783
2.50833	786
2.51667	790
2.52500	795
2.53333	802
2.54167	807
2.55000	813
2.55833	818
2.56667	824
2.57500	830
2.58333	834
2.59167	837
2.60000	839
2.60833	840
2.61667	840
2.62500	836
2.63333	832
2.64167	828
2.65000	825
2.65833	821
2.66667	818
2.67500	817
2.68333	818
2.69167	823
2.70000	832
2.70833	844
2.71667	859
2.72500	876
2.73333	897
2.74167	920
2.75000	946
2.75833	970
2.76667	993
2.77500	1016
2.78333	1040
2.79167	1062
2.80000	1083
2.80833	1102
2.81667	1119
2.82500	1136
2.83333	1149
2.84167	1159
2.85000	1167
2.85833	1171
2.86667	1172
2.87500	1170
2.88333	1165
2.89167	1156
2.90000	1145
2.90833	1130
2.91667	1115
2.92500	1097
2.93333	1077
2.94167	1057
2.95000	1037
2.95833	1017
2.96667	997
2.97500	976
2.98333	955
2.99167	935
3.00000	914
3.00833	892
3.01667	872
3.02500	851
3.03333	831
3.04167	813
3.05000	797
3.05833	781
3.06667	767
3.07500	753
3.08333	740
3.09167	728
3.10000	715
3.10833	703
3.11667	692
3.12500	682
3.13333	676
3.14167	672
3.15000	670
3.15833	668
3.16667	667
3.17500	667
3.18333	667
3.19167	668
3.20000	669
3.20833	670
3.21667	672
3.22500	675
3.23333	680
3.24167	687
3.25000	696
3.25833	706
3.26667	717
3.27500	729
3.28333	745
3.29167	761
3.30000	778
3.30833	795
3.31667	811
3.32500	828
3.33333	845
3.34167	859
3.35000	872
3.35833	883
3.36667	894
3.37500	904
3.38333	912
3.39167	919
3.40000	924
3.40833	928
3.41667	930
3.42500	932
3.43333	933
3.44167	935
3.45000	937
3.45833	940
3.46667	945
3.47500	950
3.48333	955
3.49167	960
3.50000	965
3.50833	968
3.51667	967
3.52500	962
3.53333	954
3.54167	943
3.55000	930
3.55833	916
3.56667	899
3.57500	882
3.58333	865
3.59167	848
3.60000	832
3.60833	817
3.61667	807
3.62500	794
3.63333	781
3.64167	767
3.65000	753
3.65833	742
3.66667	734
3.67500	728
3.68333	721
3.69167	715
3.70000	710
3.70833	705
3.71667	700
3.72500	697
3.73333	694
3.74167	689
3.75000	686
3.75833	682
3.76667	679
3.77500	677
3.78333	675
3.79167	674
3.80000	674
3.80833	677
3.81667	680
3.82500	687
3.83333	696
3.84167	708
3.85000	724
3.85833	743
3.86667	768
3.87500	796
3.88333	829
3.89167	867
3.90000	908
3.90833	951
3.91667	996
3.92500	1040
3.93333	1084
3.94167	1123
3.95000	1158
3.95833	1188
3.96667	1214
3.97500	1236
3.98333	1253
3.99167	1267
4.00000	1277
4.00833	1282
4.01667	1285
4.02500	1287
4.03333	1287
4.04167	1287
4.05000	1286
4.05833	1283
4.06667	1278
4.07500	1272
4.08333	1265
4.09167	1257
4.10000	1248
4.10833	1238
4.11667	1229
4.12500	1217
4.13333	1205
4.14167	1192
4.15000	1179
4.15833	1166
4.16667	1154
4.17500	1144
4.18333	1136
4.19167	1132
4.20000	1134
4.20833	1144
4.21667	1166
4.22500	1206
4.23333	1271
4.24167	1371
4.25000	1519
4.25833	1732
4.26667	2032
4.27500	2451
4.28333	3027
4.29167	3806
4.30000	4845
4.30833	6209
4.31667	7974
4.32500	10220
4.33333	13034
4.34167	16498
4.35000	20695
4.35833	25692
4.36667	31540
4.37500	38267
4.38333	45877
4.39167	54345
4.40000	63621
4.40833	73626
4.41667	84262
4.42500	95405
4.43333	106918
4.44167	118655
4.45000	130464
4.45833	142195
4.46667	153706
4.47500	164860
4.48333	175536
4.49167	185626
4.50000	195043
4.50833	203718
4.51667	211600
4.52500	218650
4.53333	224843
4.54167	230158
4.55000	234572
4.55833	238056
4.56667	240572
4.57500	242073
4.58333	242505
4.59167	241811
4.60000	239937
4.60833	236838
4.61667	232492
4.62500	226901
4.63333	220104
4.64167	212170
4.65000	203211
4.65833	193365
4.66667	182798
4.67500	171695
4.68333	160249
4.69167	148651
4.70000	137085
4.70833	125719
4.71667	114696
4.72500	104134
4.73333	94125
4.74167	84736
4.75000	76007
4.75833	67957
4.76667	60588
4.77500	53883
4.78333	47814
4.79167	42346
4.80000	37440
4.80833	33052
4.81667	29140
4.82500	25662
4.83333	22577
4.84167	19848
4.85000	17439
4.85833	15317
4.86667	13450
4.87500	11811
4.88333	10375
4.89167	9119
4.90000	8023
4.90833	7068
4.91667	6239
4.92500	5518
4.93333	4893
4.94167	4351
4.95000	3883
4.95833	3477
4.96667	3125
4.97500	2821
4.98333	2560
4.99167	2334
5.00000	2137
5.00833	1966
5.01667	1817
5.02500	1687
5.03333	1572
5.04167	1471
5.05000	1382
5.05833	1305
5.06667	1237
5.07500	1175
5.08333	1120
5.09167	1071
5.10000	1026
5.10833	986
5.11667	951
5.12500	919
5.13333	888
5.14167	861
5.15000	835
5.15833	812
5.16667	790
5.17500	769
5.18333	752
5.19167	737
5.20000	724
5.20833	711
5.21667	698
5.22500	687
5.23333	676
5.24167	666
5.25000	655
5.25833	647
5.26667	640
5.27500	634
5.28333	627
5.29167	622
5.30000	616
5.30833	611
5.31667	607
5.32500	603
5.33333	598
5.34167	594
5.35000	590
5.35833	587
5.36667	584
5.37500	581
5.38333	578
5.39167	575
5.40000	572
5.40833	571
5.41667	570
5.42500	570
5.43333	569
5.44167	569
5.45000	568
5.45833	568
5.46667	568
5.47500	568
5.48333	568
5.49167	569
5.50000	570
5.50833	570
5.51667	570
5.52500	571
5.53333	570
5.54167	571
5.55000	573
5.55833	574
5.56667	575
5.57500	575
5.58333	576
5.59167	577
5.60000	578
5.60833	580
5.61667	581
5.62500	582
5.63333	584
5.64167	586
5.65000	587
5.65833	587
5.66667	587
5.67500	588
5.68333	590
5.69167	591
5.70000	592
5.70833	592
5.71667	592
5.72500	592
5.73333	593
5.74167	594
5.75000	594
5.75833	594
5.76667	592
5.77500	591
5.78333	588
5.79167	585
5.80000	583
5.80833	581
5.81667	580
5.82500	579
5.83333	580
5.84167	579
5.85000	577
5.85833	575
5.86667	573
5.87500	572
5.88333	572
5.89167	572
5.90000	572
5.90833	571
5.91667	571
5.92500	572
5.93333	573
5.94167	575
5.95000	578
5.95833	579
5.96667	581
5.97500	583
5.98333	586
5.99167	588
6.00000	590

[LC Status Trace(Pump A Pressure)]
Interval(msec)	1000
# of Points	361
Start Time(min)	0.000
End Time(min)	6.000
Intensity Units	kgf/cm2
Intensity Multiplier	1
R.Time (min)	Intensity
0.00000	156.2
0.01667	156.2
0.03333	156.3
0.05000	157.4
0.06667	158.5
0.08333	159.9
0.10000	160.2
0.11667	160.5
0.13333	160.4
0.15000	160.1
0.16667	159.9
0.18333	159.7
0.20000	159.3
0.21667	159.2
0.23333	159.2
0.25000	159.1
0.26667	158.7
0.28333	158.5
0.30000	158.4
0.31667	158.3
0.33333	158.2
0.35000	158.2
0.36667	157.9
0.38333	158.0
0.40000	158.0
0.41667	157.8
0.43333	157.9
0.45000	157.5
0.46667	157.5
0.48333	157.6
0.50000	157.5
0.51667	157.5
0.53333	157.5
0.55000	157.5
0.56667	157.5
0.58333	157.4
0.60000	157.4
0.61667	157.2
0.63333	157.4
0.65000	157.2
0.66667	157.1
0.68333	157.4
0.70000	157.1
0.71667	157.0
0.73333	157.1
0.75000	157.1
0.76667	157.1
0.78333	157.2
0.80000	157.2
0.81667	157.4
0.83333	157.4
0.85000	157.2
0.86667	157.5
0.88333	157.2
0.90000	157.5
0.91667	157.2
0.93333	157.5
0.95000	157.4
0.96667	157.5
0.98333	157.2
1.00000	157.2
1.01667	157.4
1.03333	157.2
1.05000	157.4
1.06667	157.4
1.08333	157.4
1.10000	157.4
1.11667	157.1
1.13333	157.4
1.15000	157.5
1.16667	157.2
1.18333	157.4
1.20000	157.4
1.21667	157.4
1.23333	157.2
1.25000	157.2
1.26667	157.2
1.28333	157.2
1.30000	157.4
1.31667	157.2
1.33333	157.4
1.35000	157.2
1.36667	157.5
1.38333	157.4
1.40000	157.4
1.41667	157.4
1.43333	157.4
1.45000	157.2
1.46667	157.2
1.48333	157.4
1.50000	157.2
1.51667	157.1
1.53333	156.9
1.55000	157.2
1.56667	157.1
1.58333	157.1
1.60000	157.1
1.61667	157.0
1.63333	157.0
1.65000	157.0
1.66667	156.7
1.68333	157.0
1.70000	157.0
1.71667	157.0
1.73333	156.9
1.75000	156.9
1.76667	157.0
1.78333	156.9
1.80000	157.0
1.81667	156.9
1.83333	156.9
1.85000	156.7
1.86667	156.9
1.88333	156.9
1.90000	156.6
1.91667	156.6
1.93333	156.7
1.95000	156.7
1.96667	156.7
1.98333	156.7
2.00000	156.9
2.01667	156.9
2.03333	156.7
2.05000	156.7
2.06667	156.9
2.08333	156.7
2.10000	156.7
2.11667	156.5
2.13333	156.6
2.15000	156.5
2.16667	156.6
2.18333	156.6
2.20000	156.7
2.21667	156.5
2.23333	156.5
2.25000	156.6
2.26667	156.7
2.28333	156.7
2.30000	156.3
2.31667	156.6
2.33333	156.6
2.35000	156.7
2.36667	156.7
2.38333	156.6
2.40000	156.6
2.41667	156.6
2.43333	156.5
2.45000	156.5
2.46667	156.6
2.48333	156.5
2.50000	156.7
2.51667	156.7
2.53333	156.5
2.55000	156.5
2.56667	156.7
2.58333	156.6
2.60000	156.6
2.61667	156.2
2.63333	156.3
2.65000	156.5
2.66667	156.7
2.68333	156.3
2.70000	156.3
2.71667	156.5
2.73333	156.5
2.75000	156.3
2.76667	156.5
2.78333	156.6
2.80000	156.3
2.81667	156.7
2.83333	156.3
2.85000	156.5
2.86667	156.5
2.88333	156.5
2.90000	156.3
2.91667	156.3
2.93333	156.2
2.95000	156.2
2.96667	156.5
2.98333	156.3
3.00000	156.3
3.01667	156.5
3.03333	156.3
3.05000	156.5
3.06667	156.6
3.08333	156.6
3.10000	156.5
3.11667	156.3
3.13333	156.3
3.15000	156.3
3.16667	156.2
3.18333	156.3
3.20000	156.2
3.21667	156.2
3.23333	156.3
3.25000	156.5
3.26667	156.2
3.28333	156.1
3.30000	156.2
3.31667	156.2
3.33333	156.2
3.35000	156.2
3.36667	156.2
3.38333	156.3
3.40000	156.3
3.41667	156.3
3.43333	156.5
3.45000	156.2
3.46667	156.5
3.48333	156.3
3.50000	156.3
3.51667	156.3
3.53333	156.2
3.55000	156.2
3.56667	156.2
3.58333	156.3
3.60000	156.2
3.61667	156.3
3.63333	156.1
3.65000	156.2
3.66667	156.1
3.68333	156.2
3.70000	155.8
3.71667	156.1
3.73333	156.2
3.75000	156.2
3.76667	156.2
3.78333	156.2
3.80000	156.1
3.81667	156.2
3.83333	156.1
3.85000	156.2
3.86667	156.2
3.88333	156.3
3.90000	156.2
3.91667	156.3
3.93333	156.1
3.95000	155.9
3.96667	156.2
3.98333	156.3
4.00000	156.1
4.01667	156.3
4.03333	156.2
4.05000	156.2
4.06667	156.2
4.08333	156.2
4.10000	156.3
4.11667	156.1
4.13333	156.3
4.15000	156.3
4.16667	156.2
4.18333	156.1
4.20000	156.2
4.21667	155.9
4.23333	156.3
4.25000	156.3
4.26667	156.2
4.28333	156.2
4.30000	156.3
4.31667	156.1
4.33333	156.2
4.35000	156.3
4.36667	156.3
4.38333	156.2
4.40000	155.9
4.41667	155.9
4.43333	156.3
4.45000	156.2
4.46667	156.2
4.48333	156.3
4.50000	156.5
4.51667	156.3
4.53333	156.3
4.55000	156.2
4.56667	156.3
4.58333	156.2
4.60000	156.5
4.61667	156.2
4.63333	156.2
4.65000	156.3
4.66667	156.1
4.68333	156.2
4.70000	156.1
4.71667	156.3
4.73333	156.5
4.75000	156.2
4.76667	156.5
4.78333	156.5
4.80000	156.5
4.81667	156.3
4.83333	156.5
4.85000	156.5
4.86667	156.5
4.88333	156.5
4.90000	156.3
4.91667	156.5
4.93333	156.3
4.95000	156.5
4.96667	156.5
4.98333	156.3
5.00000	156.5
5.01667	156.3
5.03333	156.6
5.05000	156.3
5.06667	156.6
5.08333	156.5
5.10000	156.6
5.11667	156.5
5.13333	156.5
5.15000	156.6
5.16667	156.3
5.18333	156.5
5.20000	156.5
5.21667	156.3
5.23333	156.6
5.25000	156.6
5.26667	156.5
5.28333	156.5
5.30000	156.5
5.31667	156.6
5.33333	156.5
5.35000	156.5
5.36667	156.6
5.38333	156.6
5.40000	156.6
5.41667	156.6
5.43333	156.7
5.45000	156.6
5.46667	156.6
5.48333	156.9
5.50000	156.5
5.51667	156.6
5.53333	156.7
5.55000	156.7
5.56667	156.9
5.58333	157.0
5.60000	156.9
5.61667	156.9
5.63333	156.9
5.65000	156.9
5.66667	156.7
5.68333	156.9
5.70000	157.0
5.71667	156.9
5.73333	156.9
5.75000	157.0
5.76667	157.1
5.78333	157.1
5.80000	156.7
5.81667	157.0
5.83333	157.1
5.85000	157.0
5.86667	156.9
5.88333	157.1
5.90000	157.0
5.91667	157.0
5.93333	157.0
5.95000	157.1
5.96667	157.1
5.98333	157.0
6.00000	157.1

[LC Status Trace(UV Cell Temp.)]
Interval(msec)	1000
# of Points	361
Start Time(min)	0.000
End Time(min)	6.000
Intensity Units	C
Intensity Multiplier	1
R.Time (min)	Intensity
0.00000	39.99
0.01667	39.99
0.03333	39.98
0.05000	40.00
0.06667	40.02
0.08333	39.99
0.10000	40.00
0.11667	40.00
0.13333	40.00
0.15000	40.00
0.16667	40.00
0.18333	40.02
0.20000	40.00
0.21667	40.00
0.23333	40.00
0.25000	39.99
0.26667	40.00
0.28333	40.00
0.30000	40.00
0.31667	40.00
0.33333	40.00
0.35000	40.00
0.36667	40.00
0.38333	40.02
0.40000	39.98
0.41667	39.93
0.43333	39.91
0.45000	39.99
0.46667	39.99
0.48333	40.00
0.50000	40.00
0.51667	40.00
0.53333	39.99
0.55000	40.00
0.56667	40.00
0.58333	40.00
0.60000	40.00
0.61667	39.99
0.63333	40.00
0.65000	40.02
0.66667	39.98
0.68333	39.99
0.70000	40.00
0.71667	40.00
0.73333	39.97
0.75000	39.93
0.76667	39.93
0.78333	39.93
0.80000	39.96
0.81667	39.96
0.83333	40.00
0.85000	40.00
0.86667	40.00
0.88333	40.00
0.90000	39.99
0.91667	40.00
0.93333	40.07
0.95000	40.03
0.96667	40.02
0.98333	39.99
1.00000	40.00
1.01667	40.00
1.03333	40.02
1.05000	39.99
1.06667	40.00
1.08333	40.00
1.10000	40.00
1.11667	40.00
1.13333	40.00
1.15000	39.99
1.16667	39.99
1.18333	40.00
1.20000	40.00
1.21667	39.96
1.23333	39.95
1.25000	39.96
1.26667	39.95
1.28333	39.93
1.30000	39.93
1.31667	39.93
1.33333	39.93
1.35000	39.93
1.36667	39.96
1.38333	39.97
1.40000	39.99
1.41667	39.96
1.43333	39.96
1.45000	39.98
1.46667	39.99
1.48333	40.00
1.50000	39.99
1.51667	40.00
1.53333	39.99
1.55000	40.00
1.56667	39.99
1.58333	39.96
1.60000	39.95
1.61667	39.97
1.63333	39.99
1.65000	39.99
1.66667	39.99
1.68333	39.97
1.70000	39.95
1.71667	39.93
1.73333	39.93
1.75000	39.91
1.76667	39.93
1.78333	39.93
1.80000	39.97
1.81667	39.95
1.83333	39.93
1.85000	39.97
1.86667	39.98
1.88333	39.99
1.90000	39.95
1.91667	39.96
1.93333	39.97
1.95000	39.96
1.96667	39.96
1.98333	39.97
2.00000	39.96
2.01667	39.97
2.03333	39.99
2.05000	39.99
2.06667	39.99
2.08333	40.00
2.10000	40.05
2.11667	39.99
2.13333	40.00
2.15000	39.93
2.16667	40.00
2.18333	40.03
2.20000	40.00
2.21667	39.99
2.23333	39.99
2.25000	39.95
2.26667	39.99
2.28333	40.00
2.30000	40.02
2.31667	39.99
2.33333	39.99
2.35000	39.97
2.36667	39.97
2.38333	40.00
2.40000	39.96
2.41667	39.96
2.43333	39.98
2.45000	40.00
2.46667	40.00
2.48333	39.99
2.50000	40.02
2.51667	40.00
2.53333	40.00
2.55000	39.99
2.56667	40.00
2.58333	40.00
2.60000	40.02
2.61667	39.99
2.63333	40.00
2.65000	40.00
2.66667	40.00
2.68333	39.99
2.70000	40.03
2.71667	40.00
2.73333	39.99
2.75000	39.93
2.76667	39.91
2.78333	39.93
2.80000	39.93
2.81667	39.93
2.83333	39.96
2.85000	40.00
2.86667	39.99
2.88333	40.00
2.90000	39.96
2.91667	39.99
2.93333	40.00
2.95000	39.99
2.96667	40.00
2.98333	40.00
3.00000	40.00
3.01667	40.00
3.03333	40.00
3.05000	40.00
3.06667	40.00
3.08333	39.99
3.10000	39.97
3.11667	39.95
3.13333	39.96
3.15000	39.99
3.16667	39.99
3.18333	40.00
3.20000	39.99
3.21667	39.96
3.23333	40.00
3.25000	40.00
3.26667	40.00
3.28333	40.00
3.30000	40.00
3.31667	40.00
3.33333	40.02
3.35000	40.00
3.36667	40.00
3.38333	39.99
3.40000	40.00
3.41667	40.00
3.43333	40.00
3.45000	40.00
3.46667	40.00
3.48333	40.00
3.50000	40.00
3.51667	40.00
3.53333	40.00
3.55000	40.03
3.56667	40.00
3.58333	39.98
3.60000	39.93
3.61667	39.96
3.63333	39.99
3.65000	39.98
3.66667	39.99
3.68333	40.00
3.70000	40.00
3.71667	40.00
3.73333	40.00
3.75000	40.00
3.76667	39.99
3.78333	39.99
3.80000	39.96
3.81667	39.98
3.83333	39.99
3.85000	39.99
3.86667	39.98
3.88333	39.99
3.90000	39.98
3.91667	39.93
3.93333	39.95
3.95000	39.99
3.96667	39.98
3.98333	39.98
4.00000	39.99
4.01667	39.99
4.03333	40.00
4.05000	40.03
4.06667	40.02
4.08333	40.00
4.10000	40.00
4.11667	39.99
4.13333	39.99
4.15000	39.99
4.16667	40.00
4.18333	40.00
4.20000	40.00
4.21667	40.00
4.23333	40.03
4.25000	40.02
4.26667	39.99
4.28333	40.00
4.30000	40.00
4.31667	39.99
4.33333	39.95
4.35000	39.99
4.36667	40.00
4.38333	40.00
4.40000	40.00
4.41667	40.00
4.43333	40.00
4.45000	40.00
4.46667	39.99
4.48333	39.93
4.50000	39.93
4.51667	39.99
4.53333	40.00
4.55000	40.00
4.56667	40.03
4.58333	40.03
4.60000	40.06
4.61667	40.03
4.63333	40.03
4.65000	40.00
4.66667	40.00
4.68333	40.00
4.70000	40.00
4.71667	40.03
4.73333	40.02
4.75000	40.00
4.76667	40.00
4.78333	40.02
4.80000	40.03
4.81667	40.03
4.83333	40.00
4.85000	39.93
4.86667	39.96
4.88333	39.99
4.90000	40.00
4.91667	40.00
4.93333	40.03
4.95000	40.05
4.96667	40.05
4.98333	39.99
5.00000	39.99
5.01667	39.97
5.03333	39.95
5.05000	39.93
5.06667	39.97
5.08333	40.00
5.10000	39.99
5.11667	40.00
5.13333	40.00
5.15000	39.99
5.16667	40.00
5.18333	39.91
5.20000	39.93
5.21667	39.97
5.23333	39.98
5.25000	39.99
5.26667	40.00
5.28333	40.00
5.30000	40.00
5.31667	40.00
5.33333	40.00
5.35000	40.00
5.36667	39.99
5.38333	40.00
5.40000	40.00
5.41667	40.00
5.43333	39.99
5.45000	40.00
5.46667	40.00
5.48333	40.00
5.50000	40.00
5.51667	40.00
5.53333	40.00
5.55000	40.00
5.56667	40.00
5.58333	40.00
5.60000	40.00
5.61667	40.03
5.63333	40.03
5.65000	39.99
5.66667	39.97
5.68333	39.93
5.70000	39.99
5.71667	40.00
5.73333	40.00
5.75000	39.99
5.76667	40.00
5.78333	40.00
5.80000	40.00
5.81667	39.99
5.83333	39.97
5.85000	40.02
5.86667	40.00
5.88333	39.99
5.90000	40.00
5.91667	40.00
5.93333	40.00
5.95000	39.99
5.96667	39.99
5.98333	40.02
6.00000	39.99

[Fraction Collection Report]
# of Fractions	0

