[Header]
Application Name	LCsolution
Version	1.25
Data File Name	C:\LabSolutions\Data\Caffeine\20161014\std-200.lcd
Output Date	2019/1/7
Output Time	下午 06:31:40

[File Information]
Type	Data File
Generated	2016/10/17 下午 02:40:38
Generated by	Admin
Modified	2016/10/31 下午 07:52:30
Modified by	Admin

[Sample Information]
Operator Name	Admin
Acquired	2016/10/17 下午 02:40:43
Sample Type	1:Standard
Level	5
Sample Name	咖啡因-樣品20161017
Sample ID	
ISTD Amount 1	1
ISTD Amount 2	1
ISTD Amount 3	1
ISTD Amount 4	1
ISTD Amount 5	1
ISTD Amount 6	1
ISTD Amount 7	1
ISTD Amount 8	1
ISTD Amount 9	1
ISTD Amount 10	1
ISTD Amount 11	1
ISTD Amount 12	1
ISTD Amount 13	1
ISTD Amount 14	1
ISTD Amount 15	1
ISTD Amount 16	1
ISTD Amount 17	1
ISTD Amount 18	1
ISTD Amount 19	1
ISTD Amount 20	1
ISTD Amount 21	1
ISTD Amount 22	1
ISTD Amount 23	1
ISTD Amount 24	1
ISTD Amount 25	1
ISTD Amount 26	1
ISTD Amount 27	1
ISTD Amount 28	1
ISTD Amount 29	1
ISTD Amount 30	1
ISTD Amount 31	1
ISTD Amount 32	1
Sample Amount	1
Dilution Factor	1
Vial#	
Injection Volume	10

[Original Files]
Data File	C:\LabSolutions\Data\Caffeine\20161014\std-200.lcd
Method File	C:\LabSolutions\Method\Caffeine咖啡因\NEW Caffeine 280nm  XDB-C18 5um 4.6x150mm -10ul-1.0mL  B 30%MeOH in H2O.lcm
Batch File	
Report Format File	C:\LabSolutions\LCsolution\System\Default.lcr
Tuning File	

[File Description]


[Configuration]
# of Detectors	1
Detector ID	Detector A
Detector Name	Detector A
# of Channels	1

[Peak Table(Detector A-Ch1)]
# of Peaks	1
Peak#	R.Time	I.Time	F.Time	Area	Height	A/H	Conc.	Mark	ID#	Name	k'	Plate #	Plate Ht.	Tailing	Resolution	Sep.Factor	Conc. %	Norm Conc.
1	4.668	4.408	6.000	9630813	862518	11.1660	200.2551	   	1	咖啡因	0.000	3947	63.347	1.460	0.000	0.000	100.0000	100.0000

[Peak Table(PDA-Ch1)]
# of Peaks	0

[Compound Results(Detector A)]
# of IDs	1
ID#	Name	R.Time	Area	Height	Conc.	Curve	3rd	2nd	1st	Constant	Conc. %	Norm Conc.
1	咖啡因	4.668	9630813	862518	200.2551	Linear	0.0	0.0	2.024764e-005	5.253893	100.0000	100.0000

[Compound Results(PDA)]
# of IDs	0

[Group Results(Detector A)]
# of Groups	0

[Group Results(PDA)]
# of Groups	0

[LC Chromatogram(Detector A-Ch1)]
Interval(msec)	500
# of Points	721
Start Time(min)	0.000
End Time(min)	6.000
Intensity Units	mV
Intensity Multiplier	0.001
Wavelength(nm)	280
R.Time (min)	Intensity
0.00000	22
0.00833	22
0.01667	1
0.02500	1
0.03333	0
0.04167	-1
0.05000	-1
0.05833	-1
0.06667	-2
0.07500	-1
0.08333	-1
0.09167	-1
0.10000	-1
0.10833	-2
0.11667	-1
0.12500	-2
0.13333	-3
0.14167	-3
0.15000	-2
0.15833	-2
0.16667	-3
0.17500	-3
0.18333	-4
0.19167	-4
0.20000	-4
0.20833	-3
0.21667	-3
0.22500	-3
0.23333	-4
0.24167	-5
0.25000	-5
0.25833	-5
0.26667	-5
0.27500	-5
0.28333	-7
0.29167	-8
0.30000	-8
0.30833	-7
0.31667	-8
0.32500	-8
0.33333	-9
0.34167	-9
0.35000	-8
0.35833	-8
0.36667	-7
0.37500	-7
0.38333	-7
0.39167	-7
0.40000	-8
0.40833	-8
0.41667	-9
0.42500	-8
0.43333	-8
0.44167	-8
0.45000	-8
0.45833	-8
0.46667	-9
0.47500	-9
0.48333	-10
0.49167	-10
0.50000	-9
0.50833	-8
0.51667	-8
0.52500	-9
0.53333	-10
0.54167	-11
0.55000	-11
0.55833	-11
0.56667	-11
0.57500	-10
0.58333	-10
0.59167	-10
0.60000	-9
0.60833	-9
0.61667	-9
0.62500	-10
0.63333	-10
0.64167	-11
0.65000	-11
0.65833	-12
0.66667	-13
0.67500	-11
0.68333	-9
0.69167	-7
0.70000	-6
0.70833	-5
0.71667	-4
0.72500	-3
0.73333	-3
0.74167	-2
0.75000	-2
0.75833	-1
0.76667	-2
0.77500	-3
0.78333	-4
0.79167	-5
0.80000	-6
0.80833	-7
0.81667	-7
0.82500	-7
0.83333	-6
0.84167	-7
0.85000	-7
0.85833	-7
0.86667	-8
0.87500	-9
0.88333	-10
0.89167	-10
0.90000	-10
0.90833	-11
0.91667	-11
0.92500	-10
0.93333	-9
0.94167	-10
0.95000	-10
0.95833	-10
0.96667	-9
0.97500	-7
0.98333	-6
0.99167	-3
1.00000	-1
1.00833	-1
1.01667	-2
1.02500	-2
1.03333	-2
1.04167	-4
1.05000	-4
1.05833	-1
1.06667	5
1.07500	17
1.08333	34
1.09167	54
1.10000	77
1.10833	100
1.11667	121
1.12500	138
1.13333	148
1.14167	151
1.15000	146
1.15833	134
1.16667	117
1.17500	97
1.18333	77
1.19167	58
1.20000	42
1.20833	31
1.21667	25
1.22500	27
1.23333	36
1.24167	55
1.25000	82
1.25833	117
1.26667	160
1.27500	210
1.28333	263
1.29167	311
1.30000	346
1.30833	363
1.31667	361
1.32500	340
1.33333	306
1.34167	265
1.35000	222
1.35833	183
1.36667	153
1.37500	129
1.38333	112
1.39167	99
1.40000	90
1.40833	82
1.41667	75
1.42500	70
1.43333	66
1.44167	62
1.45000	58
1.45833	54
1.46667	50
1.47500	46
1.48333	43
1.49167	39
1.50000	35
1.50833	30
1.51667	25
1.52500	19
1.53333	16
1.54167	13
1.55000	11
1.55833	7
1.56667	4
1.57500	3
1.58333	1
1.59167	-0
1.60000	-1
1.60833	-2
1.61667	-3
1.62500	-2
1.63333	-2
1.64167	-2
1.65000	-2
1.65833	-3
1.66667	-3
1.67500	-3
1.68333	-3
1.69167	-4
1.70000	-5
1.70833	-5
1.71667	-6
1.72500	-6
1.73333	-6
1.74167	-6
1.75000	-7
1.75833	-8
1.76667	-8
1.77500	-8
1.78333	-8
1.79167	-7
1.80000	-8
1.80833	-9
1.81667	-10
1.82500	-12
1.83333	-13
1.84167	-14
1.85000	-13
1.85833	-13
1.86667	-12
1.87500	-12
1.88333	-13
1.89167	-12
1.90000	-12
1.90833	-13
1.91667	-14
1.92500	-14
1.93333	-14
1.94167	-15
1.95000	-14
1.95833	-13
1.96667	-12
1.97500	-11
1.98333	-10
1.99167	-9
2.00000	-8
2.00833	-7
2.01667	-5
2.02500	-4
2.03333	-2
2.04167	-1
2.05000	1
2.05833	2
2.06667	2
2.07500	2
2.08333	0
2.09167	-1
2.10000	-2
2.10833	-3
2.11667	-5
2.12500	-6
2.13333	-8
2.14167	-8
2.15000	-9
2.15833	-9
2.16667	-10
2.17500	-10
2.18333	-10
2.19167	-11
2.20000	-11
2.20833	-11
2.21667	-12
2.22500	-12
2.23333	-13
2.24167	-13
2.25000	-14
2.25833	-16
2.26667	-16
2.27500	-16
2.28333	-15
2.29167	-14
2.30000	-13
2.30833	-8
2.31667	-3
2.32500	3
2.33333	10
2.34167	16
2.35000	22
2.35833	26
2.36667	28
2.37500	29
2.38333	27
2.39167	26
2.40000	23
2.40833	19
2.41667	15
2.42500	10
2.43333	6
2.44167	1
2.45000	-3
2.45833	-7
2.46667	-11
2.47500	-15
2.48333	-17
2.49167	-17
2.50000	-18
2.50833	-19
2.51667	-20
2.52500	-20
2.53333	-21
2.54167	-21
2.55000	-21
2.55833	-21
2.56667	-22
2.57500	-24
2.58333	-25
2.59167	-25
2.60000	-25
2.60833	-26
2.61667	-25
2.62500	-25
2.63333	-26
2.64167	-26
2.65000	-26
2.65833	-26
2.66667	-26
2.67500	-26
2.68333	-25
2.69167	-24
2.70000	-24
2.70833	-24
2.71667	-24
2.72500	-24
2.73333	-23
2.74167	-23
2.75000	-23
2.75833	-23
2.76667	-23
2.77500	-22
2.78333	-20
2.79167	-17
2.80000	-12
2.80833	-5
2.81667	8
2.82500	26
2.83333	51
2.84167	84
2.85000	124
2.85833	168
2.86667	214
2.87500	259
2.88333	300
2.89167	334
2.90000	357
2.90833	369
2.91667	370
2.92500	358
2.93333	336
2.94167	308
2.95000	276
2.95833	244
2.96667	210
2.97500	177
2.98333	146
2.99167	120
3.00000	98
3.00833	79
3.01667	61
3.02500	45
3.03333	32
3.04167	22
3.05000	14
3.05833	7
3.06667	1
3.07500	-3
3.08333	-5
3.09167	-6
3.10000	-5
3.10833	-2
3.11667	1
3.12500	5
3.13333	11
3.14167	18
3.15000	25
3.15833	32
3.16667	41
3.17500	49
3.18333	56
3.19167	62
3.20000	65
3.20833	67
3.21667	66
3.22500	62
3.23333	57
3.24167	51
3.25000	44
3.25833	37
3.26667	30
3.27500	23
3.28333	16
3.29167	10
3.30000	6
3.30833	2
3.31667	-2
3.32500	-5
3.33333	-8
3.34167	-10
3.35000	-12
3.35833	-14
3.36667	-16
3.37500	-19
3.38333	-20
3.39167	-21
3.40000	-21
3.40833	-21
3.41667	-22
3.42500	-22
3.43333	-22
3.44167	-23
3.45000	-23
3.45833	-23
3.46667	-24
3.47500	-24
3.48333	-24
3.49167	-24
3.50000	-24
3.50833	-24
3.51667	-23
3.52500	-22
3.53333	-22
3.54167	-22
3.55000	-22
3.55833	-22
3.56667	-22
3.57500	-22
3.58333	-22
3.59167	-22
3.60000	-23
3.60833	-23
3.61667	-23
3.62500	-22
3.63333	-21
3.64167	-21
3.65000	-21
3.65833	-21
3.66667	-20
3.67500	-19
3.68333	-19
3.69167	-20
3.70000	-20
3.70833	-20
3.71667	-19
3.72500	-19
3.73333	-19
3.74167	-19
3.75000	-19
3.75833	-19
3.76667	-20
3.77500	-20
3.78333	-20
3.79167	-20
3.80000	-20
3.80833	-19
3.81667	-18
3.82500	-18
3.83333	-18
3.84167	-17
3.85000	-18
3.85833	-18
3.86667	-18
3.87500	-18
3.88333	-17
3.89167	-17
3.90000	-18
3.90833	-19
3.91667	-19
3.92500	-20
3.93333	-20
3.94167	-21
3.95000	-20
3.95833	-20
3.96667	-20
3.97500	-21
3.98333	-20
3.99167	-20
4.00000	-20
4.00833	-19
4.01667	-17
4.02500	-18
4.03333	-18
4.04167	-18
4.05000	-18
4.05833	-17
4.06667	-17
4.07500	-15
4.08333	-15
4.09167	-16
4.10000	-16
4.10833	-16
4.11667	-16
4.12500	-17
4.13333	-16
4.14167	-16
4.15000	-15
4.15833	-15
4.16667	-15
4.17500	-16
4.18333	-16
4.19167	-16
4.20000	-15
4.20833	-16
4.21667	-16
4.22500	-16
4.23333	-17
4.24167	-17
4.25000	-16
4.25833	-15
4.26667	-15
4.27500	-14
4.28333	-14
4.29167	-14
4.30000	-15
4.30833	-15
4.31667	-15
4.32500	-16
4.33333	-17
4.34167	-16
4.35000	-16
4.35833	-16
4.36667	-16
4.37500	-16
4.38333	-17
4.39167	-17
4.40000	-18
4.40833	-18
4.41667	-16
4.42500	-13
4.43333	-7
4.44167	7
4.45000	40
4.45833	108
4.46667	251
4.47500	536
4.48333	1086
4.49167	2115
4.50000	3974
4.50833	7195
4.51667	12554
4.52500	21101
4.53333	34141
4.54167	53170
4.55000	79721
4.55833	115135
4.56667	160299
4.57500	215398
4.58333	279736
4.59167	351679
4.60000	428737
4.60833	507772
4.61667	585313
4.62500	657904
4.63333	722418
4.64167	776326
4.65000	817855
4.65833	846058
4.66667	860773
4.67500	862531
4.68333	852410
4.69167	831872
4.70000	802609
4.70833	766401
4.71667	724999
4.72500	680045
4.73333	633004
4.74167	585138
4.75000	537497
4.75833	490916
4.76667	446041
4.77500	403340
4.78333	363135
4.79167	325619
4.80000	290884
4.80833	258940
4.81667	229740
4.82500	203194
4.83333	179179
4.84167	157552
4.85000	138159
4.85833	120842
4.86667	105438
4.87500	91788
4.88333	79737
4.89167	69134
4.90000	59838
4.90833	51714
4.91667	44638
4.92500	38492
4.93333	33175
4.94167	28587
4.95000	24638
4.95833	21250
4.96667	18349
4.97500	15870
4.98333	13755
4.99167	11956
5.00000	10426
5.00833	9126
5.01667	8021
5.02500	7084
5.03333	6287
5.04167	5608
5.05000	5030
5.05833	4537
5.06667	4112
5.07500	3746
5.08333	3430
5.09167	3157
5.10000	2920
5.10833	2711
5.11667	2526
5.12500	2362
5.13333	2216
5.14167	2085
5.15000	1968
5.15833	1861
5.16667	1763
5.17500	1672
5.18333	1590
5.19167	1514
5.20000	1445
5.20833	1383
5.21667	1325
5.22500	1269
5.23333	1217
5.24167	1169
5.25000	1123
5.25833	1080
5.26667	1040
5.27500	1003
5.28333	968
5.29167	934
5.30000	902
5.30833	872
5.31667	843
5.32500	815
5.33333	788
5.34167	764
5.35000	741
5.35833	719
5.36667	699
5.37500	679
5.38333	660
5.39167	641
5.40000	623
5.40833	607
5.41667	591
5.42500	576
5.43333	561
5.44167	547
5.45000	533
5.45833	520
5.46667	506
5.47500	494
5.48333	481
5.49167	471
5.50000	460
5.50833	450
5.51667	440
5.52500	430
5.53333	421
5.54167	413
5.55000	404
5.55833	395
5.56667	386
5.57500	378
5.58333	370
5.59167	363
5.60000	356
5.60833	350
5.61667	343
5.62500	336
5.63333	329
5.64167	323
5.65000	318
5.65833	312
5.66667	308
5.67500	303
5.68333	299
5.69167	294
5.70000	289
5.70833	284
5.71667	280
5.72500	276
5.73333	271
5.74167	267
5.75000	264
5.75833	260
5.76667	255
5.77500	251
5.78333	247
5.79167	243
5.80000	239
5.80833	235
5.81667	231
5.82500	227
5.83333	224
5.84167	220
5.85000	216
5.85833	213
5.86667	210
5.87500	208
5.88333	206
5.89167	203
5.90000	200
5.90833	197
5.91667	194
5.92500	191
5.93333	188
5.94167	186
5.95000	183
5.95833	180
5.96667	177
5.97500	175
5.98333	172
5.99167	171
6.00000	169

[LC Status Trace(Pump A Pressure)]
Interval(msec)	1000
# of Points	361
Start Time(min)	0.000
End Time(min)	6.000
Intensity Units	kgf/cm2
Intensity Multiplier	1
R.Time (min)	Intensity
0.00000	159.5
0.01667	159.5
0.03333	159.5
0.05000	159.7
0.06667	159.7
0.08333	159.7
0.10000	160.1
0.11667	160.4
0.13333	160.2
0.15000	160.4
0.16667	160.1
0.18333	160.2
0.20000	160.1
0.21667	160.0
0.23333	160.2
0.25000	160.0
0.26667	160.0
0.28333	160.1
0.30000	160.1
0.31667	160.1
0.33333	160.0
0.35000	160.0
0.36667	159.9
0.38333	159.7
0.40000	159.9
0.41667	159.9
0.43333	159.9
0.45000	159.9
0.46667	159.9
0.48333	159.9
0.50000	159.9
0.51667	160.1
0.53333	159.9
0.55000	160.0
0.56667	159.9
0.58333	159.9
0.60000	159.7
0.61667	160.1
0.63333	159.9
0.65000	159.7
0.66667	159.9
0.68333	159.9
0.70000	160.0
0.71667	159.9
0.73333	159.9
0.75000	160.1
0.76667	160.0
0.78333	160.0
0.80000	160.0
0.81667	160.0
0.83333	160.0
0.85000	159.9
0.86667	160.0
0.88333	159.9
0.90000	160.0
0.91667	160.0
0.93333	159.9
0.95000	159.9
0.96667	160.1
0.98333	160.0
1.00000	160.0
1.01667	160.0
1.03333	160.0
1.05000	160.0
1.06667	160.0
1.08333	160.0
1.10000	159.5
1.11667	160.1
1.13333	160.1
1.15000	160.1
1.16667	159.9
1.18333	160.0
1.20000	160.1
1.21667	159.9
1.23333	160.0
1.25000	160.0
1.26667	160.0
1.28333	160.1
1.30000	160.0
1.31667	160.0
1.33333	160.0
1.35000	160.0
1.36667	160.1
1.38333	160.0
1.40000	160.0
1.41667	160.0
1.43333	160.1
1.45000	160.1
1.46667	160.1
1.48333	160.2
1.50000	160.1
1.51667	160.2
1.53333	160.1
1.55000	160.4
1.56667	160.2
1.58333	160.0
1.60000	160.2
1.61667	160.1
1.63333	160.2
1.65000	160.1
1.66667	160.2
1.68333	159.7
1.70000	160.2
1.71667	160.2
1.73333	160.4
1.75000	160.2
1.76667	160.4
1.78333	160.4
1.80000	160.4
1.81667	160.5
1.83333	160.4
1.85000	160.4
1.86667	160.4
1.88333	160.5
1.90000	160.2
1.91667	160.4
1.93333	160.4
1.95000	160.2
1.96667	160.4
1.98333	160.4
2.00000	160.4
2.01667	160.5
2.03333	160.4
2.05000	160.5
2.06667	160.5
2.08333	160.5
2.10000	160.5
2.11667	160.4
2.13333	160.5
2.15000	160.4
2.16667	160.4
2.18333	160.4
2.20000	160.5
2.21667	160.4
2.23333	160.6
2.25000	160.5
2.26667	160.5
2.28333	160.5
2.30000	160.5
2.31667	160.4
2.33333	160.4
2.35000	160.2
2.36667	160.4
2.38333	160.5
2.40000	160.5
2.41667	160.4
2.43333	160.5
2.45000	160.6
2.46667	160.5
2.48333	160.5
2.50000	160.6
2.51667	160.5
2.53333	160.5
2.55000	160.6
2.56667	160.6
2.58333	160.4
2.60000	160.5
2.61667	160.8
2.63333	160.6
2.65000	160.6
2.66667	160.5
2.68333	160.6
2.70000	160.6
2.71667	160.5
2.73333	160.4
2.75000	160.5
2.76667	160.4
2.78333	160.5
2.80000	160.4
2.81667	160.6
2.83333	160.5
2.85000	160.4
2.86667	160.5
2.88333	160.4
2.90000	160.4
2.91667	160.2
2.93333	160.2
2.95000	160.5
2.96667	160.4
2.98333	160.4
3.00000	160.4
3.01667	160.2
3.03333	160.2
3.05000	160.0
3.06667	160.2
3.08333	160.4
3.10000	160.4
3.11667	160.2
3.13333	160.1
3.15000	160.1
3.16667	160.2
3.18333	160.4
3.20000	160.2
3.21667	160.2
3.23333	160.4
3.25000	160.2
3.26667	160.2
3.28333	160.2
3.30000	160.2
3.31667	160.2
3.33333	160.1
3.35000	160.0
3.36667	160.2
3.38333	160.0
3.40000	160.1
3.41667	160.1
3.43333	160.2
3.45000	160.1
3.46667	160.2
3.48333	160.2
3.50000	160.1
3.51667	160.1
3.53333	159.9
3.55000	159.6
3.56667	160.0
3.58333	160.1
3.60000	160.0
3.61667	159.9
3.63333	160.0
3.65000	159.9
3.66667	160.1
3.68333	160.0
3.70000	160.1
3.71667	160.0
3.73333	159.9
3.75000	160.0
3.76667	160.0
3.78333	159.9
3.80000	160.0
3.81667	160.0
3.83333	159.9
3.85000	160.0
3.86667	159.9
3.88333	159.9
3.90000	159.7
3.91667	159.9
3.93333	159.6
3.95000	159.9
3.96667	159.9
3.98333	159.7
4.00000	159.7
4.01667	159.9
4.03333	159.9
4.05000	159.9
4.06667	159.9
4.08333	159.7
4.10000	159.6
4.11667	159.6
4.13333	159.5
4.15000	159.7
4.16667	159.9
4.18333	159.7
4.20000	159.6
4.21667	159.9
4.23333	159.7
4.25000	159.6
4.26667	159.5
4.28333	159.5
4.30000	159.7
4.31667	159.6
4.33333	159.6
4.35000	159.5
4.36667	159.5
4.38333	159.6
4.40000	159.6
4.41667	159.5
4.43333	159.6
4.45000	159.6
4.46667	159.5
4.48333	159.5
4.50000	159.7
4.51667	159.5
4.53333	159.5
4.55000	159.6
4.56667	159.3
4.58333	159.5
4.60000	159.5
4.61667	159.5
4.63333	159.1
4.65000	159.3
4.66667	159.3
4.68333	159.6
4.70000	159.5
4.71667	159.2
4.73333	159.5
4.75000	159.3
4.76667	159.3
4.78333	159.2
4.80000	159.2
4.81667	159.3
4.83333	159.3
4.85000	159.3
4.86667	159.5
4.88333	159.2
4.90000	159.3
4.91667	159.1
4.93333	159.2
4.95000	159.2
4.96667	159.3
4.98333	159.3
5.00000	159.3
5.01667	159.3
5.03333	159.2
5.05000	159.2
5.06667	159.2
5.08333	159.1
5.10000	159.1
5.11667	159.1
5.13333	159.2
5.15000	159.2
5.16667	159.2
5.18333	158.9
5.20000	159.3
5.21667	159.1
5.23333	159.2
5.25000	158.9
5.26667	158.9
5.28333	158.9
5.30000	158.8
5.31667	158.8
5.33333	159.1
5.35000	159.1
5.36667	159.1
5.38333	159.1
5.40000	159.2
5.41667	158.9
5.43333	159.2
5.45000	159.2
5.46667	158.9
5.48333	159.2
5.50000	159.2
5.51667	159.2
5.53333	158.9
5.55000	158.9
5.56667	159.1
5.58333	158.9
5.60000	158.9
5.61667	158.8
5.63333	159.1
5.65000	158.8
5.66667	158.9
5.68333	159.1
5.70000	159.1
5.71667	158.9
5.73333	158.9
5.75000	158.9
5.76667	158.9
5.78333	158.9
5.80000	159.1
5.81667	158.5
5.83333	158.9
5.85000	158.9
5.86667	159.1
5.88333	158.9
5.90000	158.9
5.91667	159.1
5.93333	159.1
5.95000	158.9
5.96667	159.1
5.98333	158.9
6.00000	158.8

[LC Status Trace(UV Cell Temp.)]
Interval(msec)	1000
# of Points	361
Start Time(min)	0.000
End Time(min)	6.000
Intensity Units	C
Intensity Multiplier	1
R.Time (min)	Intensity
0.00000	39.99
0.01667	39.99
0.03333	39.93
0.05000	39.97
0.06667	39.99
0.08333	39.97
0.10000	40.00
0.11667	40.00
0.13333	40.00
0.15000	40.03
0.16667	40.00
0.18333	39.99
0.20000	39.99
0.21667	40.00
0.23333	40.00
0.25000	39.99
0.26667	39.99
0.28333	39.99
0.30000	39.98
0.31667	39.93
0.33333	39.91
0.35000	39.93
0.36667	40.00
0.38333	40.00
0.40000	40.00
0.41667	40.00
0.43333	40.00
0.45000	39.97
0.46667	39.98
0.48333	39.99
0.50000	39.99
0.51667	40.00
0.53333	39.99
0.55000	39.96
0.56667	40.00
0.58333	40.00
0.60000	40.00
0.61667	40.00
0.63333	40.00
0.65000	40.00
0.66667	39.99
0.68333	39.99
0.70000	39.98
0.71667	40.02
0.73333	40.00
0.75000	39.97
0.76667	39.97
0.78333	39.95
0.80000	39.96
0.81667	39.95
0.83333	39.96
0.85000	39.93
0.86667	39.93
0.88333	39.96
0.90000	39.91
0.91667	39.96
0.93333	39.95
0.95000	39.98
0.96667	39.93
0.98333	39.96
1.00000	39.95
1.01667	39.93
1.03333	39.98
1.05000	40.00
1.06667	40.02
1.08333	40.02
1.10000	40.00
1.11667	40.00
1.13333	40.00
1.15000	40.00
1.16667	39.99
1.18333	39.99
1.20000	40.03
1.21667	40.00
1.23333	39.99
1.25000	39.99
1.26667	40.02
1.28333	40.02
1.30000	39.99
1.31667	39.99
1.33333	40.00
1.35000	39.99
1.36667	40.05
1.38333	40.02
1.40000	40.00
1.41667	40.00
1.43333	40.02
1.45000	40.00
1.46667	40.00
1.48333	40.00
1.50000	40.00
1.51667	39.99
1.53333	39.97
1.55000	40.00
1.56667	40.05
1.58333	40.03
1.60000	40.02
1.61667	39.97
1.63333	39.93
1.65000	39.95
1.66667	40.00
1.68333	40.00
1.70000	40.00
1.71667	40.00
1.73333	40.02
1.75000	40.02
1.76667	39.99
1.78333	39.95
1.80000	39.93
1.81667	39.93
1.83333	39.97
1.85000	40.00
1.86667	40.00
1.88333	40.00
1.90000	40.00
1.91667	40.00
1.93333	40.05
1.95000	40.02
1.96667	39.99
1.98333	40.00
2.00000	40.00
2.01667	40.02
2.03333	40.00
2.05000	40.00
2.06667	40.02
2.08333	40.02
2.10000	40.02
2.11667	40.02
2.13333	40.00
2.15000	40.00
2.16667	40.00
2.18333	40.00
2.20000	40.00
2.21667	39.99
2.23333	39.99
2.25000	40.00
2.26667	39.99
2.28333	39.91
2.30000	39.91
2.31667	39.95
2.33333	39.96
2.35000	39.93
2.36667	39.93
2.38333	39.96
2.40000	39.99
2.41667	39.98
2.43333	40.00
2.45000	40.00
2.46667	39.99
2.48333	40.00
2.50000	39.99
2.51667	40.00
2.53333	39.97
2.55000	39.99
2.56667	40.00
2.58333	40.00
2.60000	40.00
2.61667	40.00
2.63333	40.00
2.65000	40.00
2.66667	40.00
2.68333	40.03
2.70000	40.00
2.71667	40.00
2.73333	39.98
2.75000	40.00
2.76667	39.99
2.78333	40.00
2.80000	39.98
2.81667	39.97
2.83333	40.00
2.85000	39.99
2.86667	40.00
2.88333	40.00
2.90000	40.00
2.91667	39.99
2.93333	40.02
2.95000	40.00
2.96667	40.02
2.98333	40.00
3.00000	40.00
3.01667	39.96
3.03333	39.93
3.05000	39.93
3.06667	39.98
3.08333	40.00
3.10000	40.00
3.11667	39.99
3.13333	40.00
3.15000	40.00
3.16667	39.98
3.18333	39.95
3.20000	39.93
3.21667	39.93
3.23333	39.97
3.25000	40.00
3.26667	40.00
3.28333	40.02
3.30000	40.00
3.31667	39.99
3.33333	39.99
3.35000	40.00
3.36667	40.00
3.38333	40.00
3.40000	40.00
3.41667	39.99
3.43333	40.00
3.45000	40.02
3.46667	39.99
3.48333	40.00
3.50000	39.96
3.51667	39.95
3.53333	39.93
3.55000	39.93
3.56667	39.93
3.58333	39.93
3.60000	39.93
3.61667	39.98
3.63333	39.97
3.65000	39.93
3.66667	39.98
3.68333	40.00
3.70000	40.00
3.71667	39.96
3.73333	39.93
3.75000	39.93
3.76667	39.89
3.78333	39.93
3.80000	39.97
3.81667	39.93
3.83333	39.91
3.85000	39.95
3.86667	39.98
3.88333	39.98
3.90000	39.97
3.91667	40.00
3.93333	39.99
3.95000	40.00
3.96667	40.00
3.98333	40.00
4.00000	40.00
4.01667	40.00
4.03333	40.00
4.05000	40.00
4.06667	39.99
4.08333	40.02
4.10000	40.02
4.11667	39.99
4.13333	40.00
4.15000	39.98
4.16667	40.02
4.18333	40.05
4.20000	40.00
4.21667	39.99
4.23333	39.99
4.25000	40.00
4.26667	40.00
4.28333	40.00
4.30000	40.00
4.31667	40.00
4.33333	40.00
4.35000	40.02
4.36667	39.99
4.38333	40.00
4.40000	39.99
4.41667	40.00
4.43333	40.00
4.45000	39.99
4.46667	39.97
4.48333	39.97
4.50000	39.99
4.51667	39.96
4.53333	39.91
4.55000	39.93
4.56667	39.95
4.58333	39.95
4.60000	39.95
4.61667	39.97
4.63333	39.95
4.65000	39.97
4.66667	39.99
4.68333	39.99
4.70000	40.00
4.71667	39.99
4.73333	40.00
4.75000	40.00
4.76667	39.97
4.78333	39.96
4.80000	40.00
4.81667	39.98
4.83333	39.97
4.85000	39.98
4.86667	39.98
4.88333	40.02
4.90000	40.03
4.91667	40.03
4.93333	40.00
4.95000	40.02
4.96667	40.02
4.98333	40.00
5.00000	39.99
5.01667	39.99
5.03333	40.00
5.05000	40.00
5.06667	40.00
5.08333	39.99
5.10000	40.00
5.11667	40.00
5.13333	40.00
5.15000	40.00
5.16667	40.00
5.18333	39.99
5.20000	39.99
5.21667	39.99
5.23333	40.02
5.25000	40.00
5.26667	40.00
5.28333	40.02
5.30000	40.05
5.31667	40.02
5.33333	40.03
5.35000	40.00
5.36667	40.00
5.38333	39.96
5.40000	40.00
5.41667	40.02
5.43333	40.00
5.45000	40.00
5.46667	39.99
5.48333	40.00
5.50000	40.00
5.51667	40.00
5.53333	40.00
5.55000	39.98
5.56667	39.99
5.58333	39.96
5.60000	39.93
5.61667	39.98
5.63333	39.99
5.65000	39.99
5.66667	40.02
5.68333	40.05
5.70000	40.00
5.71667	40.00
5.73333	40.00
5.75000	40.02
5.76667	40.00
5.78333	39.99
5.80000	39.98
5.81667	39.95
5.83333	39.96
5.85000	39.99
5.86667	39.99
5.88333	40.00
5.90000	40.00
5.91667	40.02
5.93333	40.00
5.95000	39.99
5.96667	40.00
5.98333	40.00
6.00000	40.00

[Fraction Collection Report]
# of Fractions	0

