[Header]
Application Name	LCsolution
Version	1.25
Data File Name	C:\LabSolutions\Data\Caffeine\20161014\std-150.lcd
Output Date	2019/1/7
Output Time	下午 06:31:33

[File Information]
Type	Data File
Generated	2016/10/17 下午 02:32:58
Generated by	Admin
Modified	2016/10/31 下午 07:52:29
Modified by	Admin

[Sample Information]
Operator Name	Admin
Acquired	2016/10/17 下午 02:33:08
Sample Type	1:Standard
Level	4
Sample Name	咖啡因-樣品20161017
Sample ID	
ISTD Amount 1	1
ISTD Amount 2	1
ISTD Amount 3	1
ISTD Amount 4	1
ISTD Amount 5	1
ISTD Amount 6	1
ISTD Amount 7	1
ISTD Amount 8	1
ISTD Amount 9	1
ISTD Amount 10	1
ISTD Amount 11	1
ISTD Amount 12	1
ISTD Amount 13	1
ISTD Amount 14	1
ISTD Amount 15	1
ISTD Amount 16	1
ISTD Amount 17	1
ISTD Amount 18	1
ISTD Amount 19	1
ISTD Amount 20	1
ISTD Amount 21	1
ISTD Amount 22	1
ISTD Amount 23	1
ISTD Amount 24	1
ISTD Amount 25	1
ISTD Amount 26	1
ISTD Amount 27	1
ISTD Amount 28	1
ISTD Amount 29	1
ISTD Amount 30	1
ISTD Amount 31	1
ISTD Amount 32	1
Sample Amount	1
Dilution Factor	1
Vial#	
Injection Volume	10

[Original Files]
Data File	C:\LabSolutions\Data\Caffeine\20161014\std-150.lcd
Method File	C:\LabSolutions\Method\Caffeine咖啡因\NEW Caffeine 280nm  XDB-C18 5um 4.6x150mm -10ul-1.0mL  B 30%MeOH in H2O.lcm
Batch File	
Report Format File	C:\LabSolutions\LCsolution\System\Default.lcr
Tuning File	

[File Description]


[Configuration]
# of Detectors	1
Detector ID	Detector A
Detector Name	Detector A
# of Channels	1

[Peak Table(Detector A-Ch1)]
# of Peaks	1
Peak#	R.Time	I.Time	F.Time	Area	Height	A/H	Conc.	Mark	ID#	Name	k'	Plate #	Plate Ht.	Tailing	Resolution	Sep.Factor	Conc. %	Norm Conc.
1	4.679	4.400	6.000	7173829	638921	11.2280	150.8540	   	1	咖啡因	0.000	3933	63.572	1.451	0.000	0.000	100.0000	100.0000

[Peak Table(PDA-Ch1)]
# of Peaks	0

[Compound Results(Detector A)]
# of IDs	1
ID#	Name	R.Time	Area	Height	Conc.	Curve	3rd	2nd	1st	Constant	Conc. %	Norm Conc.
1	咖啡因	4.679	7173829	638921	150.8540	Linear	0.0	0.0	2.035249e-005	4.84876	100.0000	100.0000

[Compound Results(PDA)]
# of IDs	0

[Group Results(Detector A)]
# of Groups	0

[Group Results(PDA)]
# of Groups	0

[LC Chromatogram(Detector A-Ch1)]
Interval(msec)	500
# of Points	721
Start Time(min)	0.000
End Time(min)	6.000
Intensity Units	mV
Intensity Multiplier	0.001
Wavelength(nm)	280
R.Time (min)	Intensity
0.00000	-468
0.00833	-468
0.01667	0
0.02500	1
0.03333	1
0.04167	2
0.05000	2
0.05833	2
0.06667	1
0.07500	2
0.08333	2
0.09167	2
0.10000	2
0.10833	2
0.11667	2
0.12500	2
0.13333	2
0.14167	2
0.15000	2
0.15833	2
0.16667	3
0.17500	3
0.18333	4
0.19167	4
0.20000	3
0.20833	3
0.21667	3
0.22500	3
0.23333	3
0.24167	3
0.25000	3
0.25833	4
0.26667	4
0.27500	4
0.28333	5
0.29167	5
0.30000	6
0.30833	6
0.31667	6
0.32500	6
0.33333	6
0.34167	7
0.35000	8
0.35833	8
0.36667	7
0.37500	8
0.38333	8
0.39167	8
0.40000	8
0.40833	6
0.41667	6
0.42500	7
0.43333	8
0.44167	10
0.45000	11
0.45833	13
0.46667	13
0.47500	15
0.48333	17
0.49167	19
0.50000	21
0.50833	21
0.51667	22
0.52500	21
0.53333	21
0.54167	20
0.55000	19
0.55833	19
0.56667	18
0.57500	18
0.58333	18
0.59167	18
0.60000	17
0.60833	16
0.61667	16
0.62500	16
0.63333	16
0.64167	15
0.65000	16
0.65833	16
0.66667	16
0.67500	17
0.68333	17
0.69167	16
0.70000	14
0.70833	13
0.71667	13
0.72500	13
0.73333	13
0.74167	14
0.75000	15
0.75833	16
0.76667	16
0.77500	15
0.78333	16
0.79167	19
0.80000	20
0.80833	18
0.81667	16
0.82500	15
0.83333	16
0.84167	15
0.85000	15
0.85833	14
0.86667	13
0.87500	13
0.88333	14
0.89167	13
0.90000	13
0.90833	13
0.91667	12
0.92500	13
0.93333	13
0.94167	14
0.95000	14
0.95833	15
0.96667	16
0.97500	18
0.98333	19
0.99167	21
1.00000	22
1.00833	22
1.01667	23
1.02500	23
1.03333	23
1.04167	24
1.05000	28
1.05833	34
1.06667	44
1.07500	59
1.08333	79
1.09167	102
1.10000	127
1.10833	149
1.11667	167
1.12500	179
1.13333	186
1.14167	186
1.15000	180
1.15833	170
1.16667	157
1.17500	143
1.18333	130
1.19167	118
1.20000	109
1.20833	104
1.21667	102
1.22500	107
1.23333	120
1.24167	144
1.25000	184
1.25833	248
1.26667	344
1.27500	469
1.28333	608
1.29167	738
1.30000	834
1.30833	881
1.31667	876
1.32500	828
1.33333	747
1.34167	649
1.35000	550
1.35833	462
1.36667	390
1.37500	335
1.38333	295
1.39167	266
1.40000	245
1.40833	228
1.41667	214
1.42500	203
1.43333	193
1.44167	184
1.45000	177
1.45833	169
1.46667	160
1.47500	151
1.48333	140
1.49167	128
1.50000	115
1.50833	103
1.51667	90
1.52500	79
1.53333	70
1.54167	62
1.55000	55
1.55833	50
1.56667	45
1.57500	42
1.58333	41
1.59167	40
1.60000	39
1.60833	37
1.61667	37
1.62500	36
1.63333	35
1.64167	34
1.65000	33
1.65833	33
1.66667	33
1.67500	32
1.68333	32
1.69167	31
1.70000	31
1.70833	30
1.71667	30
1.72500	30
1.73333	30
1.74167	29
1.75000	27
1.75833	25
1.76667	24
1.77500	24
1.78333	24
1.79167	23
1.80000	23
1.80833	22
1.81667	21
1.82500	21
1.83333	20
1.84167	19
1.85000	18
1.85833	19
1.86667	19
1.87500	19
1.88333	18
1.89167	17
1.90000	17
1.90833	16
1.91667	15
1.92500	15
1.93333	15
1.94167	16
1.95000	17
1.95833	17
1.96667	18
1.97500	20
1.98333	22
1.99167	25
2.00000	28
2.00833	32
2.01667	37
2.02500	43
2.03333	49
2.04167	52
2.05000	54
2.05833	56
2.06667	57
2.07500	57
2.08333	56
2.09167	54
2.10000	52
2.10833	49
2.11667	45
2.12500	40
2.13333	36
2.14167	33
2.15000	30
2.15833	27
2.16667	25
2.17500	23
2.18333	21
2.19167	19
2.20000	17
2.20833	16
2.21667	15
2.22500	14
2.23333	13
2.24167	11
2.25000	10
2.25833	10
2.26667	10
2.27500	10
2.28333	10
2.29167	11
2.30000	14
2.30833	18
2.31667	26
2.32500	33
2.33333	38
2.34167	42
2.35000	44
2.35833	46
2.36667	46
2.37500	45
2.38333	43
2.39167	39
2.40000	34
2.40833	30
2.41667	27
2.42500	24
2.43333	20
2.44167	18
2.45000	17
2.45833	15
2.46667	12
2.47500	10
2.48333	7
2.49167	5
2.50000	4
2.50833	3
2.51667	3
2.52500	2
2.53333	1
2.54167	1
2.55000	-0
2.55833	-0
2.56667	0
2.57500	0
2.58333	-0
2.59167	0
2.60000	1
2.60833	1
2.61667	0
2.62500	-0
2.63333	-1
2.64167	-3
2.65000	-5
2.65833	-6
2.66667	-6
2.67500	-7
2.68333	-6
2.69167	-6
2.70000	-6
2.70833	-5
2.71667	-5
2.72500	-4
2.73333	-5
2.74167	-5
2.75000	-4
2.75833	-2
2.76667	-1
2.77500	-0
2.78333	1
2.79167	5
2.80000	8
2.80833	15
2.81667	25
2.82500	42
2.83333	63
2.84167	90
2.85000	121
2.85833	154
2.86667	190
2.87500	223
2.88333	251
2.89167	273
2.90000	286
2.90833	291
2.91667	286
2.92500	274
2.93333	256
2.94167	234
2.95000	210
2.95833	185
2.96667	160
2.97500	136
2.98333	115
2.99167	95
3.00000	78
3.00833	64
3.01667	52
3.02500	42
3.03333	34
3.04167	27
3.05000	22
3.05833	17
3.06667	14
3.07500	13
3.08333	12
3.09167	13
3.10000	14
3.10833	15
3.11667	18
3.12500	21
3.13333	25
3.14167	30
3.15000	36
3.15833	41
3.16667	46
3.17500	50
3.18333	54
3.19167	57
3.20000	59
3.20833	59
3.21667	57
3.22500	53
3.23333	49
3.24167	43
3.25000	38
3.25833	32
3.26667	25
3.27500	19
3.28333	14
3.29167	10
3.30000	7
3.30833	4
3.31667	1
3.32500	-2
3.33333	-4
3.34167	-6
3.35000	-8
3.35833	-9
3.36667	-10
3.37500	-12
3.38333	-12
3.39167	-13
3.40000	-13
3.40833	-13
3.41667	-13
3.42500	-15
3.43333	-16
3.44167	-16
3.45000	-16
3.45833	-18
3.46667	-18
3.47500	-17
3.48333	-17
3.49167	-15
3.50000	-16
3.50833	-17
3.51667	-18
3.52500	-17
3.53333	-17
3.54167	-17
3.55000	-18
3.55833	-19
3.56667	-19
3.57500	-19
3.58333	-20
3.59167	-19
3.60000	-20
3.60833	-20
3.61667	-19
3.62500	-19
3.63333	-20
3.64167	-18
3.65000	-18
3.65833	-17
3.66667	-18
3.67500	-19
3.68333	-20
3.69167	-21
3.70000	-21
3.70833	-20
3.71667	-20
3.72500	-20
3.73333	-21
3.74167	-21
3.75000	-21
3.75833	-21
3.76667	-20
3.77500	-20
3.78333	-18
3.79167	-18
3.80000	-19
3.80833	-19
3.81667	-20
3.82500	-21
3.83333	-22
3.84167	-23
3.85000	-23
3.85833	-22
3.86667	-21
3.87500	-20
3.88333	-20
3.89167	-21
3.90000	-21
3.90833	-21
3.91667	-21
3.92500	-21
3.93333	-22
3.94167	-22
3.95000	-22
3.95833	-22
3.96667	-22
3.97500	-23
3.98333	-23
3.99167	-23
4.00000	-23
4.00833	-22
4.01667	-22
4.02500	-22
4.03333	-22
4.04167	-22
4.05000	-22
4.05833	-22
4.06667	-22
4.07500	-22
4.08333	-23
4.09167	-23
4.10000	-23
4.10833	-23
4.11667	-23
4.12500	-23
4.13333	-22
4.14167	-22
4.15000	-22
4.15833	-23
4.16667	-25
4.17500	-26
4.18333	-26
4.19167	-25
4.20000	-25
4.20833	-24
4.21667	-23
4.22500	-24
4.23333	-24
4.24167	-23
4.25000	-23
4.25833	-25
4.26667	-25
4.27500	-26
4.28333	-25
4.29167	-25
4.30000	-25
4.30833	-25
4.31667	-24
4.32500	-24
4.33333	-24
4.34167	-24
4.35000	-25
4.35833	-25
4.36667	-25
4.37500	-25
4.38333	-25
4.39167	-25
4.40000	-25
4.40833	-24
4.41667	-23
4.42500	-22
4.43333	-20
4.44167	-14
4.45000	-2
4.45833	25
4.46667	83
4.47500	198
4.48333	424
4.49167	852
4.50000	1637
4.50833	3027
4.51667	5398
4.52500	9287
4.53333	15413
4.54167	24673
4.55000	38095
4.55833	56740
4.56667	81557
4.57500	113220
4.58333	151953
4.59167	197403
4.60000	248581
4.60833	303889
4.61667	361239
4.62500	418243
4.63333	472432
4.64167	521487
4.65000	563434
4.65833	596788
4.66667	620631
4.67500	634613
4.68333	638922
4.69167	634184
4.70000	621370
4.70833	601662
4.71667	576356
4.72500	546771
4.73333	514159
4.74167	479665
4.75000	444288
4.75833	408869
4.76667	374089
4.77500	340474
4.78333	308407
4.79167	278155
4.80000	249879
4.80833	223658
4.81667	199511
4.82500	177409
4.83333	157283
4.84167	139046
4.85000	122593
4.85833	107810
4.86667	94574
4.87500	82769
4.88333	72277
4.89167	62983
4.90000	54778
4.90833	47559
4.91667	41226
4.92500	35690
4.93333	30866
4.94167	26674
4.95000	23044
4.95833	19907
4.96667	17205
4.97500	14882
4.98333	12891
4.99167	11187
5.00000	9731
5.00833	8488
5.01667	7430
5.02500	6529
5.03333	5761
5.04167	5109
5.05000	4552
5.05833	4075
5.06667	3667
5.07500	3319
5.08333	3021
5.09167	2762
5.10000	2536
5.10833	2339
5.11667	2167
5.12500	2016
5.13333	1881
5.14167	1760
5.15000	1653
5.15833	1556
5.16667	1470
5.17500	1392
5.18333	1322
5.19167	1257
5.20000	1198
5.20833	1143
5.21667	1091
5.22500	1044
5.23333	999
5.24167	956
5.25000	917
5.25833	881
5.26667	848
5.27500	816
5.28333	785
5.29167	756
5.30000	730
5.30833	705
5.31667	682
5.32500	659
5.33333	637
5.34167	616
5.35000	595
5.35833	578
5.36667	561
5.37500	544
5.38333	527
5.39167	512
5.40000	497
5.40833	483
5.41667	469
5.42500	456
5.43333	443
5.44167	432
5.45000	421
5.45833	410
5.46667	401
5.47500	391
5.48333	381
5.49167	372
5.50000	362
5.50833	354
5.51667	347
5.52500	340
5.53333	331
5.54167	324
5.55000	318
5.55833	311
5.56667	304
5.57500	298
5.58333	292
5.59167	285
5.60000	279
5.60833	274
5.61667	267
5.62500	261
5.63333	256
5.64167	251
5.65000	246
5.65833	240
5.66667	235
5.67500	232
5.68333	228
5.69167	224
5.70000	219
5.70833	215
5.71667	211
5.72500	207
5.73333	203
5.74167	198
5.75000	195
5.75833	192
5.76667	190
5.77500	186
5.78333	183
5.79167	179
5.80000	175
5.80833	172
5.81667	169
5.82500	166
5.83333	163
5.84167	160
5.85000	157
5.85833	155
5.86667	154
5.87500	152
5.88333	149
5.89167	146
5.90000	145
5.90833	143
5.91667	142
5.92500	140
5.93333	137
5.94167	135
5.95000	132
5.95833	130
5.96667	128
5.97500	127
5.98333	125
5.99167	123
6.00000	122

[LC Status Trace(Pump A Pressure)]
Interval(msec)	1000
# of Points	361
Start Time(min)	0.000
End Time(min)	6.000
Intensity Units	kgf/cm2
Intensity Multiplier	1
R.Time (min)	Intensity
0.00000	160.0
0.01667	160.0
0.03333	159.9
0.05000	159.9
0.06667	159.9
0.08333	160.2
0.10000	160.4
0.11667	160.5
0.13333	160.6
0.15000	160.6
0.16667	160.8
0.18333	160.6
0.20000	160.8
0.21667	160.9
0.23333	160.6
0.25000	160.6
0.26667	160.6
0.28333	160.6
0.30000	160.4
0.31667	160.4
0.33333	160.2
0.35000	160.4
0.36667	160.2
0.38333	160.4
0.40000	160.2
0.41667	160.4
0.43333	160.4
0.45000	160.4
0.46667	160.4
0.48333	160.4
0.50000	160.4
0.51667	160.1
0.53333	160.4
0.55000	160.4
0.56667	160.2
0.58333	160.2
0.60000	160.4
0.61667	160.4
0.63333	160.2
0.65000	160.1
0.66667	160.4
0.68333	160.2
0.70000	160.2
0.71667	160.0
0.73333	160.1
0.75000	160.1
0.76667	160.4
0.78333	160.1
0.80000	160.4
0.81667	160.4
0.83333	160.4
0.85000	160.1
0.86667	160.1
0.88333	160.2
0.90000	160.0
0.91667	160.1
0.93333	160.2
0.95000	160.1
0.96667	160.2
0.98333	160.0
1.00000	160.1
1.01667	160.1
1.03333	160.2
1.05000	160.1
1.06667	160.1
1.08333	160.1
1.10000	160.2
1.11667	160.1
1.13333	160.2
1.15000	160.1
1.16667	160.4
1.18333	160.0
1.20000	160.1
1.21667	160.1
1.23333	160.1
1.25000	160.4
1.26667	160.4
1.28333	160.2
1.30000	160.2
1.31667	160.0
1.33333	160.1
1.35000	160.1
1.36667	160.2
1.38333	160.0
1.40000	160.1
1.41667	159.9
1.43333	160.2
1.45000	160.0
1.46667	160.1
1.48333	160.2
1.50000	160.2
1.51667	160.0
1.53333	160.1
1.55000	160.2
1.56667	160.1
1.58333	160.1
1.60000	160.4
1.61667	160.1
1.63333	160.1
1.65000	160.1
1.66667	160.1
1.68333	160.2
1.70000	160.1
1.71667	160.4
1.73333	160.2
1.75000	160.4
1.76667	160.2
1.78333	160.2
1.80000	160.4
1.81667	160.2
1.83333	160.4
1.85000	160.4
1.86667	160.4
1.88333	160.4
1.90000	160.4
1.91667	160.4
1.93333	160.5
1.95000	160.4
1.96667	160.5
1.98333	160.4
2.00000	160.4
2.01667	160.4
2.03333	160.5
2.05000	160.4
2.06667	160.4
2.08333	160.4
2.10000	160.2
2.11667	160.6
2.13333	160.4
2.15000	160.2
2.16667	160.4
2.18333	160.5
2.20000	160.5
2.21667	160.5
2.23333	160.6
2.25000	160.5
2.26667	160.5
2.28333	160.6
2.30000	160.5
2.31667	160.6
2.33333	160.5
2.35000	160.6
2.36667	160.6
2.38333	160.5
2.40000	160.6
2.41667	160.6
2.43333	160.6
2.45000	160.8
2.46667	160.6
2.48333	160.6
2.50000	160.8
2.51667	160.6
2.53333	160.8
2.55000	160.9
2.56667	160.8
2.58333	160.6
2.60000	160.9
2.61667	160.9
2.63333	160.8
2.65000	160.8
2.66667	160.9
2.68333	160.6
2.70000	161.0
2.71667	160.9
2.73333	161.0
2.75000	160.9
2.76667	160.9
2.78333	160.9
2.80000	161.0
2.81667	161.0
2.83333	160.8
2.85000	160.9
2.86667	160.9
2.88333	161.0
2.90000	161.0
2.91667	160.8
2.93333	161.0
2.95000	160.9
2.96667	161.0
2.98333	161.1
3.00000	161.1
3.01667	161.1
3.03333	160.9
3.05000	161.1
3.06667	161.0
3.08333	161.0
3.10000	161.0
3.11667	161.0
3.13333	160.9
3.15000	161.1
3.16667	161.0
3.18333	161.1
3.20000	161.3
3.21667	161.1
3.23333	161.4
3.25000	161.3
3.26667	161.0
3.28333	161.0
3.30000	161.3
3.31667	161.5
3.33333	161.1
3.35000	161.4
3.36667	161.3
3.38333	161.5
3.40000	161.1
3.41667	161.3
3.43333	161.4
3.45000	161.3
3.46667	161.3
3.48333	161.4
3.50000	161.4
3.51667	161.1
3.53333	161.3
3.55000	161.4
3.56667	161.1
3.58333	161.4
3.60000	161.5
3.61667	161.4
3.63333	161.5
3.65000	161.4
3.66667	161.4
3.68333	161.4
3.70000	161.5
3.71667	161.5
3.73333	161.5
3.75000	161.5
3.76667	161.4
3.78333	161.3
3.80000	161.4
3.81667	161.3
3.83333	161.5
3.85000	161.3
3.86667	161.4
3.88333	161.3
3.90000	161.4
3.91667	161.4
3.93333	161.3
3.95000	161.1
3.96667	161.1
3.98333	161.3
4.00000	161.3
4.01667	161.4
4.03333	161.1
4.05000	161.4
4.06667	161.4
4.08333	161.4
4.10000	161.1
4.11667	161.4
4.13333	161.4
4.15000	161.0
4.16667	161.3
4.18333	161.3
4.20000	161.3
4.21667	161.3
4.23333	161.4
4.25000	161.3
4.26667	161.1
4.28333	161.3
4.30000	161.1
4.31667	161.4
4.33333	161.3
4.35000	161.1
4.36667	161.3
4.38333	161.3
4.40000	161.3
4.41667	161.3
4.43333	161.1
4.45000	161.3
4.46667	161.4
4.48333	161.1
4.50000	161.3
4.51667	161.1
4.53333	161.0
4.55000	160.8
4.56667	161.3
4.58333	161.0
4.60000	161.1
4.61667	161.0
4.63333	161.1
4.65000	161.1
4.66667	161.0
4.68333	161.3
4.70000	161.1
4.71667	161.0
4.73333	161.0
4.75000	161.1
4.76667	160.9
4.78333	161.1
4.80000	161.0
4.81667	161.0
4.83333	161.1
4.85000	160.9
4.86667	161.1
4.88333	161.0
4.90000	161.0
4.91667	160.9
4.93333	160.9
4.95000	161.0
4.96667	161.0
4.98333	160.9
5.00000	161.0
5.01667	160.9
5.03333	160.8
5.05000	160.9
5.06667	160.9
5.08333	160.9
5.10000	160.9
5.11667	160.8
5.13333	160.9
5.15000	160.9
5.16667	160.9
5.18333	160.9
5.20000	161.0
5.21667	160.6
5.23333	160.8
5.25000	160.8
5.26667	160.9
5.28333	160.6
5.30000	160.8
5.31667	160.6
5.33333	160.8
5.35000	160.8
5.36667	160.8
5.38333	160.6
5.40000	160.6
5.41667	160.6
5.43333	160.6
5.45000	160.9
5.46667	160.6
5.48333	160.8
5.50000	160.8
5.51667	160.6
5.53333	160.5
5.55000	160.6
5.56667	160.6
5.58333	160.6
5.60000	160.5
5.61667	160.8
5.63333	160.8
5.65000	160.6
5.66667	160.6
5.68333	160.6
5.70000	160.6
5.71667	160.5
5.73333	160.2
5.75000	160.8
5.76667	160.8
5.78333	160.6
5.80000	160.4
5.81667	160.6
5.83333	160.4
5.85000	160.5
5.86667	160.5
5.88333	160.6
5.90000	160.5
5.91667	160.5
5.93333	160.5
5.95000	160.5
5.96667	160.2
5.98333	160.4
6.00000	160.5

[LC Status Trace(UV Cell Temp.)]
Interval(msec)	1000
# of Points	361
Start Time(min)	0.000
End Time(min)	6.000
Intensity Units	C
Intensity Multiplier	1
R.Time (min)	Intensity
0.00000	40.00
0.01667	40.00
0.03333	39.99
0.05000	39.99
0.06667	40.00
0.08333	40.05
0.10000	40.02
0.11667	40.05
0.13333	40.05
0.15000	40.00
0.16667	40.00
0.18333	40.00
0.20000	40.00
0.21667	40.00
0.23333	39.99
0.25000	39.99
0.26667	40.00
0.28333	39.97
0.30000	39.99
0.31667	40.00
0.33333	40.00
0.35000	40.00
0.36667	39.98
0.38333	40.00
0.40000	40.02
0.41667	39.99
0.43333	40.00
0.45000	40.03
0.46667	39.99
0.48333	40.00
0.50000	40.00
0.51667	40.03
0.53333	40.06
0.55000	39.99
0.56667	39.99
0.58333	39.95
0.60000	39.93
0.61667	39.93
0.63333	39.93
0.65000	39.93
0.66667	39.91
0.68333	39.98
0.70000	39.99
0.71667	39.98
0.73333	40.00
0.75000	40.02
0.76667	40.00
0.78333	39.98
0.80000	39.93
0.81667	39.93
0.83333	39.95
0.85000	39.99
0.86667	40.05
0.88333	40.02
0.90000	40.02
0.91667	40.02
0.93333	40.00
0.95000	39.99
0.96667	39.99
0.98333	40.00
1.00000	40.00
1.01667	40.00
1.03333	40.00
1.05000	40.00
1.06667	39.99
1.08333	39.95
1.10000	39.93
1.11667	39.93
1.13333	39.93
1.15000	39.97
1.16667	39.99
1.18333	39.98
1.20000	40.00
1.21667	40.00
1.23333	40.00
1.25000	40.02
1.26667	40.00
1.28333	40.00
1.30000	40.00
1.31667	40.02
1.33333	40.03
1.35000	40.00
1.36667	40.00
1.38333	40.00
1.40000	39.99
1.41667	39.95
1.43333	39.95
1.45000	40.02
1.46667	40.00
1.48333	39.99
1.50000	40.00
1.51667	40.00
1.53333	40.02
1.55000	40.02
1.56667	40.02
1.58333	40.00
1.60000	39.99
1.61667	39.98
1.63333	39.96
1.65000	39.93
1.66667	39.97
1.68333	39.99
1.70000	40.00
1.71667	39.99
1.73333	40.00
1.75000	40.02
1.76667	40.00
1.78333	40.00
1.80000	40.02
1.81667	40.00
1.83333	40.00
1.85000	40.00
1.86667	40.00
1.88333	40.02
1.90000	39.99
1.91667	39.96
1.93333	39.95
1.95000	39.97
1.96667	40.00
1.98333	39.99
2.00000	39.99
2.01667	40.03
2.03333	40.02
2.05000	40.00
2.06667	40.00
2.08333	40.03
2.10000	40.00
2.11667	40.00
2.13333	40.05
2.15000	40.00
2.16667	40.00
2.18333	40.00
2.20000	40.00
2.21667	39.99
2.23333	39.97
2.25000	39.98
2.26667	39.99
2.28333	39.97
2.30000	39.98
2.31667	39.91
2.33333	39.91
2.35000	39.95
2.36667	39.95
2.38333	39.99
2.40000	39.96
2.41667	39.99
2.43333	39.99
2.45000	39.98
2.46667	39.96
2.48333	39.97
2.50000	39.90
2.51667	39.93
2.53333	39.93
2.55000	39.96
2.56667	39.96
2.58333	39.99
2.60000	39.97
2.61667	39.98
2.63333	39.99
2.65000	40.00
2.66667	40.00
2.68333	39.99
2.70000	39.99
2.71667	40.00
2.73333	39.99
2.75000	39.99
2.76667	39.99
2.78333	39.98
2.80000	39.99
2.81667	40.00
2.83333	40.00
2.85000	39.99
2.86667	40.00
2.88333	40.00
2.90000	40.00
2.91667	39.99
2.93333	40.00
2.95000	40.00
2.96667	40.00
2.98333	40.00
3.00000	40.00
3.01667	40.00
3.03333	39.99
3.05000	39.91
3.06667	39.96
3.08333	39.95
3.10000	39.96
3.11667	39.99
3.13333	39.97
3.15000	40.00
3.16667	39.99
3.18333	40.00
3.20000	40.00
3.21667	40.00
3.23333	39.99
3.25000	39.99
3.26667	39.99
3.28333	39.93
3.30000	39.98
3.31667	39.98
3.33333	39.93
3.35000	39.93
3.36667	39.95
3.38333	39.93
3.40000	39.95
3.41667	39.98
3.43333	39.91
3.45000	39.93
3.46667	39.93
3.48333	39.93
3.50000	40.00
3.51667	40.00
3.53333	39.98
3.55000	40.00
3.56667	40.00
3.58333	39.99
3.60000	39.99
3.61667	40.00
3.63333	40.00
3.65000	39.99
3.66667	39.99
3.68333	39.99
3.70000	40.00
3.71667	40.00
3.73333	40.00
3.75000	39.99
3.76667	40.00
3.78333	40.00
3.80000	40.00
3.81667	40.00
3.83333	39.99
3.85000	39.99
3.86667	40.00
3.88333	39.99
3.90000	39.96
3.91667	39.93
3.93333	39.96
3.95000	40.00
3.96667	40.00
3.98333	40.00
4.00000	40.00
4.01667	40.00
4.03333	40.00
4.05000	40.00
4.06667	40.00
4.08333	40.00
4.10000	40.02
4.11667	40.03
4.13333	40.00
4.15000	39.99
4.16667	39.98
4.18333	39.96
4.20000	39.93
4.21667	39.95
4.23333	39.96
4.25000	39.99
4.26667	40.03
4.28333	40.05
4.30000	40.03
4.31667	40.06
4.33333	40.00
4.35000	40.00
4.36667	39.93
4.38333	39.93
4.40000	39.98
4.41667	40.00
4.43333	40.00
4.45000	39.99
4.46667	39.99
4.48333	40.00
4.50000	40.00
4.51667	40.00
4.53333	40.00
4.55000	39.99
4.56667	40.00
4.58333	39.99
4.60000	39.99
4.61667	39.98
4.63333	39.96
4.65000	39.93
4.66667	39.93
4.68333	39.93
4.70000	39.93
4.71667	39.97
4.73333	39.99
4.75000	40.00
4.76667	40.00
4.78333	40.00
4.80000	39.99
4.81667	40.00
4.83333	40.00
4.85000	40.00
4.86667	40.00
4.88333	40.00
4.90000	39.99
4.91667	39.98
4.93333	39.97
4.95000	39.96
4.96667	39.91
4.98333	39.93
5.00000	39.99
5.01667	40.00
5.03333	40.00
5.05000	40.00
5.06667	40.00
5.08333	40.00
5.10000	40.00
5.11667	40.00
5.13333	40.00
5.15000	39.99
5.16667	40.00
5.18333	40.00
5.20000	39.98
5.21667	39.99
5.23333	40.00
5.25000	40.00
5.26667	40.00
5.28333	40.02
5.30000	40.00
5.31667	39.99
5.33333	39.95
5.35000	39.93
5.36667	39.98
5.38333	39.97
5.40000	40.00
5.41667	39.98
5.43333	39.93
5.45000	39.93
5.46667	39.97
5.48333	39.97
5.50000	39.99
5.51667	39.98
5.53333	39.97
5.55000	40.00
5.56667	40.00
5.58333	40.00
5.60000	39.98
5.61667	39.97
5.63333	39.95
5.65000	39.93
5.66667	39.95
5.68333	39.95
5.70000	39.97
5.71667	39.99
5.73333	40.00
5.75000	40.00
5.76667	39.99
5.78333	40.00
5.80000	40.00
5.81667	40.00
5.83333	39.99
5.85000	40.00
5.86667	39.99
5.88333	39.98
5.90000	40.00
5.91667	40.00
5.93333	40.00
5.95000	40.00
5.96667	39.98
5.98333	39.98
6.00000	39.96

[Fraction Collection Report]
# of Fractions	0

