[Header]
Application Name	LCsolution
Version	1.25
Data File Name	C:\LabSolutions\Data\Caffeine\20161014\std-50.lcd
Output Date	2019/1/7
Output Time	下午 06:31:53

[File Information]
Type	Data File
Generated	2016/10/17 下午 01:08:39
Generated by	Admin
Modified	2016/10/31 下午 07:52:28
Modified by	Admin

[Sample Information]
Operator Name	Admin
Acquired	2016/10/17 下午 01:08:45
Sample Type	1:Standard
Level	2
Sample Name	咖啡因-樣品20161017
Sample ID	
ISTD Amount 1	1
ISTD Amount 2	1
ISTD Amount 3	1
ISTD Amount 4	1
ISTD Amount 5	1
ISTD Amount 6	1
ISTD Amount 7	1
ISTD Amount 8	1
ISTD Amount 9	1
ISTD Amount 10	1
ISTD Amount 11	1
ISTD Amount 12	1
ISTD Amount 13	1
ISTD Amount 14	1
ISTD Amount 15	1
ISTD Amount 16	1
ISTD Amount 17	1
ISTD Amount 18	1
ISTD Amount 19	1
ISTD Amount 20	1
ISTD Amount 21	1
ISTD Amount 22	1
ISTD Amount 23	1
ISTD Amount 24	1
ISTD Amount 25	1
ISTD Amount 26	1
ISTD Amount 27	1
ISTD Amount 28	1
ISTD Amount 29	1
ISTD Amount 30	1
ISTD Amount 31	1
ISTD Amount 32	1
Sample Amount	1
Dilution Factor	1
Vial#	
Injection Volume	10

[Original Files]
Data File	C:\LabSolutions\Data\Caffeine\20161014\std-50.lcd
Method File	C:\LabSolutions\Method\Caffeine咖啡因\NEW Caffeine 280nm  XDB-C18 5um 4.6x150mm -10ul-1.0mL  B 30%MeOH in H2O.lcm
Batch File	
Report Format File	C:\LabSolutions\LCsolution\System\Default.lcr
Tuning File	

[File Description]


[Configuration]
# of Detectors	1
Detector ID	Detector A
Detector Name	Detector A
# of Channels	1

[Peak Table(Detector A-Ch1)]
# of Peaks	2
Peak#	R.Time	I.Time	F.Time	Area	Height	A/H	Conc.	Mark	ID#	Name	k'	Plate #	Plate Ht.	Tailing	Resolution	Sep.Factor	Conc. %	Norm Conc.
1	4.649	4.425	5.117	2265237	207755	10.9030	50.0000	   	1	咖啡因	0.000	4124	60.628	1.428	0.000	0.000	100.0000	100.0000
2	5.675	5.117	5.967	53091	1443	36.7950	0.0000	 V 			0.221	470	531.593	0.000	1.535	0.000	0.0000	0.0000

[Peak Table(PDA-Ch1)]
# of Peaks	0

[Compound Results(Detector A)]
# of IDs	1
ID#	Name	R.Time	Area	Height	Conc.	Curve	3rd	2nd	1st	Constant	Conc. %	Norm Conc.
1	咖啡因	4.649	2265237	207755	50.0000	Linear	0.0	0.0	2.207275e-005	0.0	100.0000	100.0000

[Compound Results(PDA)]
# of IDs	0

[Group Results(Detector A)]
# of Groups	0

[Group Results(PDA)]
# of Groups	0

[LC Chromatogram(Detector A-Ch1)]
Interval(msec)	500
# of Points	721
Start Time(min)	0.000
End Time(min)	6.000
Intensity Units	mV
Intensity Multiplier	0.001
Wavelength(nm)	280
R.Time (min)	Intensity
0.00000	-780
0.00833	-780
0.01667	-656
0.02500	-0
0.03333	-1
0.04167	-2
0.05000	-3
0.05833	-3
0.06667	-3
0.07500	-5
0.08333	-6
0.09167	-7
0.10000	-8
0.10833	-10
0.11667	-11
0.12500	-11
0.13333	-11
0.14167	-11
0.15000	-12
0.15833	-13
0.16667	-14
0.17500	-14
0.18333	-15
0.19167	-15
0.20000	-16
0.20833	-17
0.21667	-17
0.22500	-19
0.23333	-20
0.24167	-20
0.25000	-21
0.25833	-21
0.26667	-20
0.27500	-21
0.28333	-21
0.29167	-21
0.30000	-21
0.30833	-23
0.31667	-24
0.32500	-24
0.33333	-24
0.34167	-25
0.35000	-25
0.35833	-25
0.36667	-27
0.37500	-27
0.38333	-28
0.39167	-28
0.40000	-27
0.40833	-26
0.41667	-26
0.42500	-26
0.43333	-26
0.44167	-27
0.45000	-27
0.45833	-28
0.46667	-29
0.47500	-30
0.48333	-30
0.49167	-30
0.50000	-30
0.50833	-31
0.51667	-31
0.52500	-32
0.53333	-32
0.54167	-32
0.55000	-32
0.55833	-31
0.56667	-30
0.57500	-29
0.58333	-29
0.59167	-29
0.60000	-28
0.60833	-27
0.61667	-25
0.62500	-24
0.63333	-22
0.64167	-21
0.65000	-19
0.65833	-16
0.66667	-13
0.67500	-11
0.68333	-9
0.69167	-7
0.70000	-5
0.70833	-5
0.71667	-3
0.72500	-1
0.73333	0
0.74167	1
0.75000	3
0.75833	5
0.76667	7
0.77500	8
0.78333	9
0.79167	10
0.80000	12
0.80833	15
0.81667	17
0.82500	20
0.83333	22
0.84167	24
0.85000	26
0.85833	27
0.86667	30
0.87500	32
0.88333	36
0.89167	41
0.90000	47
0.90833	55
0.91667	64
0.92500	76
0.93333	90
0.94167	104
0.95000	115
0.95833	125
0.96667	133
0.97500	138
0.98333	140
0.99167	141
1.00000	140
1.00833	138
1.01667	136
1.02500	133
1.03333	130
1.04167	128
1.05000	129
1.05833	134
1.06667	143
1.07500	159
1.08333	181
1.09167	206
1.10000	233
1.10833	259
1.11667	279
1.12500	293
1.13333	300
1.14167	301
1.15000	295
1.15833	288
1.16667	280
1.17500	271
1.18333	264
1.19167	258
1.20000	259
1.20833	269
1.21667	292
1.22500	331
1.23333	383
1.24167	440
1.25000	494
1.25833	535
1.26667	558
1.27500	560
1.28333	544
1.29167	514
1.30000	478
1.30833	440
1.31667	405
1.32500	374
1.33333	347
1.34167	326
1.35000	308
1.35833	292
1.36667	279
1.37500	269
1.38333	262
1.39167	256
1.40000	251
1.40833	247
1.41667	245
1.42500	243
1.43333	242
1.44167	240
1.45000	238
1.45833	235
1.46667	231
1.47500	225
1.48333	220
1.49167	217
1.50000	214
1.50833	212
1.51667	212
1.52500	211
1.53333	212
1.54167	212
1.55000	213
1.55833	215
1.56667	217
1.57500	220
1.58333	221
1.59167	221
1.60000	222
1.60833	223
1.61667	223
1.62500	224
1.63333	225
1.64167	225
1.65000	225
1.65833	224
1.66667	224
1.67500	224
1.68333	224
1.69167	223
1.70000	222
1.70833	222
1.71667	224
1.72500	227
1.73333	227
1.74167	229
1.75000	229
1.75833	230
1.76667	232
1.77500	233
1.78333	235
1.79167	237
1.80000	238
1.80833	239
1.81667	241
1.82500	242
1.83333	241
1.84167	240
1.85000	240
1.85833	240
1.86667	239
1.87500	238
1.88333	237
1.89167	237
1.90000	237
1.90833	237
1.91667	237
1.92500	236
1.93333	236
1.94167	235
1.95000	236
1.95833	236
1.96667	237
1.97500	237
1.98333	237
1.99167	236
2.00000	236
2.00833	236
2.01667	237
2.02500	238
2.03333	239
2.04167	240
2.05000	240
2.05833	240
2.06667	240
2.07500	240
2.08333	240
2.09167	240
2.10000	239
2.10833	240
2.11667	240
2.12500	240
2.13333	239
2.14167	238
2.15000	237
2.15833	236
2.16667	237
2.17500	237
2.18333	238
2.19167	238
2.20000	238
2.20833	237
2.21667	237
2.22500	238
2.23333	237
2.24167	237
2.25000	237
2.25833	236
2.26667	236
2.27500	237
2.28333	237
2.29167	237
2.30000	239
2.30833	242
2.31667	244
2.32500	244
2.33333	245
2.34167	245
2.35000	246
2.35833	245
2.36667	244
2.37500	241
2.38333	239
2.39167	237
2.40000	234
2.40833	231
2.41667	228
2.42500	226
2.43333	224
2.44167	223
2.45000	222
2.45833	221
2.46667	219
2.47500	218
2.48333	217
2.49167	215
2.50000	213
2.50833	212
2.51667	212
2.52500	212
2.53333	211
2.54167	210
2.55000	208
2.55833	207
2.56667	206
2.57500	207
2.58333	210
2.59167	214
2.60000	218
2.60833	223
2.61667	228
2.62500	234
2.63333	240
2.64167	245
2.65000	250
2.65833	254
2.66667	256
2.67500	258
2.68333	260
2.69167	261
2.70000	261
2.70833	259
2.71667	256
2.72500	252
2.73333	248
2.74167	241
2.75000	234
2.75833	227
2.76667	221
2.77500	215
2.78333	210
2.79167	205
2.80000	200
2.80833	197
2.81667	193
2.82500	191
2.83333	191
2.84167	190
2.85000	189
2.85833	188
2.86667	188
2.87500	189
2.88333	190
2.89167	192
2.90000	191
2.90833	189
2.91667	188
2.92500	188
2.93333	188
2.94167	188
2.95000	187
2.95833	186
2.96667	185
2.97500	184
2.98333	183
2.99167	182
3.00000	181
3.00833	179
3.01667	177
3.02500	176
3.03333	175
3.04167	174
3.05000	173
3.05833	173
3.06667	174
3.07500	175
3.08333	176
3.09167	177
3.10000	179
3.10833	182
3.11667	184
3.12500	184
3.13333	186
3.14167	187
3.15000	188
3.15833	187
3.16667	187
3.17500	188
3.18333	189
3.19167	187
3.20000	186
3.20833	183
3.21667	182
3.22500	182
3.23333	181
3.24167	180
3.25000	179
3.25833	177
3.26667	177
3.27500	176
3.28333	177
3.29167	178
3.30000	178
3.30833	178
3.31667	178
3.32500	178
3.33333	178
3.34167	178
3.35000	179
3.35833	179
3.36667	179
3.37500	178
3.38333	178
3.39167	178
3.40000	177
3.40833	176
3.41667	175
3.42500	175
3.43333	176
3.44167	176
3.45000	177
3.45833	177
3.46667	178
3.47500	178
3.48333	177
3.49167	176
3.50000	177
3.50833	176
3.51667	175
3.52500	174
3.53333	173
3.54167	172
3.55000	171
3.55833	170
3.56667	169
3.57500	168
3.58333	167
3.59167	166
3.60000	165
3.60833	163
3.61667	163
3.62500	161
3.63333	159
3.64167	159
3.65000	159
3.65833	158
3.66667	158
3.67500	157
3.68333	156
3.69167	155
3.70000	155
3.70833	156
3.71667	155
3.72500	153
3.73333	153
3.74167	152
3.75000	151
3.75833	150
3.76667	150
3.77500	149
3.78333	149
3.79167	149
3.80000	149
3.80833	149
3.81667	148
3.82500	148
3.83333	148
3.84167	147
3.85000	147
3.85833	148
3.86667	148
3.87500	147
3.88333	147
3.89167	148
3.90000	148
3.90833	149
3.91667	150
3.92500	150
3.93333	151
3.94167	152
3.95000	153
3.95833	154
3.96667	154
3.97500	154
3.98333	155
3.99167	156
4.00000	157
4.00833	159
4.01667	161
4.02500	163
4.03333	163
4.04167	163
4.05000	165
4.05833	166
4.06667	168
4.07500	169
4.08333	170
4.09167	172
4.10000	174
4.10833	175
4.11667	178
4.12500	179
4.13333	181
4.14167	183
4.15000	186
4.15833	188
4.16667	190
4.17500	193
4.18333	194
4.19167	196
4.20000	199
4.20833	202
4.21667	204
4.22500	207
4.23333	210
4.24167	212
4.25000	215
4.25833	217
4.26667	219
4.27500	222
4.28333	223
4.29167	226
4.30000	228
4.30833	230
4.31667	233
4.32500	236
4.33333	238
4.34167	241
4.35000	244
4.35833	247
4.36667	249
4.37500	252
4.38333	255
4.39167	259
4.40000	263
4.40833	267
4.41667	274
4.42500	286
4.43333	307
4.44167	345
4.45000	414
4.45833	539
4.46667	761
4.47500	1147
4.48333	1792
4.49167	2836
4.50000	4469
4.50833	6933
4.51667	10517
4.52500	15539
4.53333	22318
4.54167	31126
4.55000	42139
4.55833	55391
4.56667	70734
4.57500	87817
4.58333	106102
4.59167	124886
4.60000	143368
4.60833	160718
4.61667	176159
4.62500	189033
4.63333	198851
4.64167	205330
4.65000	208391
4.65833	208155
4.66667	204894
4.67500	199000
4.68333	190940
4.69167	181206
4.70000	170285
4.70833	158624
4.71667	146615
4.72500	134583
4.73333	122790
4.74167	111432
4.75000	100648
4.75833	90526
4.76667	81117
4.77500	72441
4.78333	64497
4.79167	57267
4.80000	50718
4.80833	44813
4.81667	39509
4.82500	34765
4.83333	30536
4.84167	26780
4.85000	23454
4.85833	20519
4.86667	17937
4.87500	15675
4.88333	13700
4.89167	11979
4.90000	10486
4.90833	9194
4.91667	8080
4.92500	7123
4.93333	6304
4.94167	5603
4.95000	5009
4.95833	4506
4.96667	4080
4.97500	3721
4.98333	3419
4.99167	3165
5.00000	2953
5.00833	2779
5.01667	2636
5.02500	2518
5.03333	2421
5.04167	2342
5.05000	2276
5.05833	2225
5.06667	2184
5.07500	2153
5.08333	2129
5.09167	2112
5.10000	2100
5.10833	2093
5.11667	2092
5.12500	2094
5.13333	2100
5.14167	2108
5.15000	2118
5.15833	2131
5.16667	2146
5.17500	2164
5.18333	2183
5.19167	2204
5.20000	2225
5.20833	2248
5.21667	2272
5.22500	2299
5.23333	2328
5.24167	2357
5.25000	2386
5.25833	2416
5.26667	2446
5.27500	2476
5.28333	2506
5.29167	2535
5.30000	2565
5.30833	2596
5.31667	2628
5.32500	2662
5.33333	2697
5.34167	2732
5.35000	2766
5.35833	2801
5.36667	2836
5.37500	2870
5.38333	2904
5.39167	2938
5.40000	2973
5.40833	3007
5.41667	3040
5.42500	3073
5.43333	3106
5.44167	3139
5.45000	3171
5.45833	3203
5.46667	3234
5.47500	3265
5.48333	3295
5.49167	3324
5.50000	3352
5.50833	3380
5.51667	3408
5.52500	3433
5.53333	3458
5.54167	3481
5.55000	3503
5.55833	3524
5.56667	3544
5.57500	3564
5.58333	3583
5.59167	3600
5.60000	3615
5.60833	3629
5.61667	3640
5.62500	3651
5.63333	3661
5.64167	3669
5.65000	3675
5.65833	3679
5.66667	3681
5.67500	3682
5.68333	3682
5.69167	3680
5.70000	3676
5.70833	3671
5.71667	3662
5.72500	3654
5.73333	3643
5.74167	3630
5.75000	3615
5.75833	3598
5.76667	3579
5.77500	3559
5.78333	3537
5.79167	3514
5.80000	3489
5.80833	3462
5.81667	3433
5.82500	3403
5.83333	3372
5.84167	3338
5.85000	3303
5.85833	3267
5.86667	3229
5.87500	3189
5.88333	3149
5.89167	3108
5.90000	3064
5.90833	3020
5.91667	2975
5.92500	2930
5.93333	2884
5.94167	2838
5.95000	2791
5.95833	2743
5.96667	2695
5.97500	2648
5.98333	2602
5.99167	2554
6.00000	2505

[LC Status Trace(Pump A Pressure)]
Interval(msec)	1000
# of Points	361
Start Time(min)	0.000
End Time(min)	6.000
Intensity Units	kgf/cm2
Intensity Multiplier	1
R.Time (min)	Intensity
0.00000	155.8
0.01667	155.8
0.03333	156.2
0.05000	157.0
0.06667	156.9
0.08333	157.2
0.10000	157.8
0.11667	157.8
0.13333	157.8
0.15000	157.6
0.16667	157.8
0.18333	157.9
0.20000	157.8
0.21667	157.8
0.23333	158.0
0.25000	157.9
0.26667	157.9
0.28333	158.0
0.30000	157.9
0.31667	157.8
0.33333	157.4
0.35000	157.6
0.36667	157.8
0.38333	157.9
0.40000	157.6
0.41667	157.9
0.43333	157.5
0.45000	157.8
0.46667	157.6
0.48333	157.9
0.50000	157.9
0.51667	157.5
0.53333	157.6
0.55000	157.8
0.56667	157.8
0.58333	157.9
0.60000	158.0
0.61667	157.9
0.63333	157.9
0.65000	158.2
0.66667	158.2
0.68333	157.9
0.70000	158.3
0.71667	158.0
0.73333	158.3
0.75000	158.2
0.76667	158.0
0.78333	158.3
0.80000	158.0
0.81667	158.2
0.83333	157.8
0.85000	158.3
0.86667	158.2
0.88333	158.2
0.90000	158.2
0.91667	158.2
0.93333	158.3
0.95000	158.2
0.96667	158.2
0.98333	158.3
1.00000	158.3
1.01667	158.0
1.03333	158.3
1.05000	158.0
1.06667	158.4
1.08333	158.2
1.10000	158.3
1.11667	158.0
1.13333	158.4
1.15000	158.0
1.16667	158.3
1.18333	158.4
1.20000	158.2
1.21667	158.4
1.23333	158.4
1.25000	158.4
1.26667	158.4
1.28333	158.5
1.30000	158.4
1.31667	158.5
1.33333	158.4
1.35000	158.4
1.36667	158.4
1.38333	158.3
1.40000	158.4
1.41667	158.5
1.43333	158.2
1.45000	158.3
1.46667	158.7
1.48333	158.4
1.50000	158.5
1.51667	158.7
1.53333	158.5
1.55000	158.7
1.56667	158.5
1.58333	158.5
1.60000	158.5
1.61667	158.7
1.63333	158.5
1.65000	158.5
1.66667	158.5
1.68333	158.5
1.70000	158.5
1.71667	158.4
1.73333	158.5
1.75000	158.5
1.76667	158.7
1.78333	158.7
1.80000	158.4
1.81667	158.8
1.83333	158.5
1.85000	158.5
1.86667	158.8
1.88333	158.5
1.90000	158.7
1.91667	158.5
1.93333	158.5
1.95000	158.5
1.96667	158.7
1.98333	158.7
2.00000	158.7
2.01667	158.5
2.03333	158.5
2.05000	158.7
2.06667	158.4
2.08333	158.5
2.10000	158.7
2.11667	158.4
2.13333	158.7
2.15000	158.5
2.16667	158.4
2.18333	158.5
2.20000	158.4
2.21667	158.5
2.23333	158.5
2.25000	158.4
2.26667	158.4
2.28333	158.5
2.30000	158.4
2.31667	158.5
2.33333	158.4
2.35000	158.5
2.36667	158.5
2.38333	158.5
2.40000	158.5
2.41667	158.4
2.43333	158.4
2.45000	158.5
2.46667	158.3
2.48333	158.5
2.50000	158.4
2.51667	158.4
2.53333	158.4
2.55000	158.4
2.56667	158.7
2.58333	158.4
2.60000	158.4
2.61667	158.5
2.63333	158.5
2.65000	158.4
2.66667	158.4
2.68333	158.4
2.70000	158.3
2.71667	158.3
2.73333	158.5
2.75000	158.3
2.76667	158.3
2.78333	158.3
2.80000	158.3
2.81667	158.3
2.83333	158.4
2.85000	158.3
2.86667	158.3
2.88333	158.3
2.90000	158.3
2.91667	158.5
2.93333	158.2
2.95000	158.4
2.96667	158.2
2.98333	158.3
3.00000	158.2
3.01667	158.2
3.03333	158.3
3.05000	158.3
3.06667	158.2
3.08333	158.0
3.10000	158.2
3.11667	158.3
3.13333	158.2
3.15000	158.2
3.16667	158.2
3.18333	158.3
3.20000	158.2
3.21667	158.0
3.23333	158.4
3.25000	158.2
3.26667	158.3
3.28333	158.3
3.30000	158.0
3.31667	158.0
3.33333	157.9
3.35000	158.2
3.36667	158.0
3.38333	158.0
3.40000	158.0
3.41667	158.2
3.43333	158.0
3.45000	158.2
3.46667	158.0
3.48333	157.9
3.50000	158.0
3.51667	157.9
3.53333	157.9
3.55000	158.2
3.56667	158.0
3.58333	158.0
3.60000	157.9
3.61667	157.9
3.63333	157.9
3.65000	158.0
3.66667	157.8
3.68333	157.8
3.70000	157.9
3.71667	157.9
3.73333	157.9
3.75000	157.8
3.76667	157.8
3.78333	157.9
3.80000	157.8
3.81667	157.9
3.83333	157.8
3.85000	157.8
3.86667	157.8
3.88333	157.8
3.90000	157.6
3.91667	157.9
3.93333	157.9
3.95000	157.8
3.96667	157.5
3.98333	157.8
4.00000	157.5
4.01667	157.8
4.03333	157.8
4.05000	157.6
4.06667	157.6
4.08333	157.6
4.10000	157.5
4.11667	157.6
4.13333	157.6
4.15000	157.6
4.16667	157.8
4.18333	157.6
4.20000	157.5
4.21667	157.5
4.23333	157.5
4.25000	157.6
4.26667	157.8
4.28333	157.2
4.30000	157.8
4.31667	157.8
4.33333	157.5
4.35000	157.6
4.36667	157.8
4.38333	157.6
4.40000	157.8
4.41667	157.6
4.43333	157.5
4.45000	157.5
4.46667	157.8
4.48333	157.4
4.50000	157.4
4.51667	157.4
4.53333	157.4
4.55000	157.5
4.56667	157.5
4.58333	157.4
4.60000	157.6
4.61667	157.6
4.63333	157.4
4.65000	157.5
4.66667	157.6
4.68333	157.6
4.70000	157.5
4.71667	157.6
4.73333	157.8
4.75000	157.8
4.76667	157.8
4.78333	157.5
4.80000	157.5
4.81667	157.8
4.83333	157.4
4.85000	157.4
4.86667	157.6
4.88333	157.5
4.90000	157.5
4.91667	157.4
4.93333	157.4
4.95000	157.5
4.96667	157.5
4.98333	157.6
5.00000	157.5
5.01667	157.5
5.03333	157.5
5.05000	157.8
5.06667	157.4
5.08333	157.6
5.10000	157.5
5.11667	157.4
5.13333	157.5
5.15000	157.4
5.16667	157.6
5.18333	157.8
5.20000	157.6
5.21667	157.6
5.23333	157.8
5.25000	157.6
5.26667	157.6
5.28333	157.6
5.30000	157.6
5.31667	157.6
5.33333	157.4
5.35000	157.5
5.36667	157.6
5.38333	157.5
5.40000	157.5
5.41667	157.5
5.43333	157.5
5.45000	157.5
5.46667	157.5
5.48333	157.8
5.50000	157.6
5.51667	157.5
5.53333	157.5
5.55000	157.6
5.56667	157.6
5.58333	157.6
5.60000	157.6
5.61667	157.5
5.63333	157.8
5.65000	157.8
5.66667	157.5
5.68333	157.6
5.70000	157.6
5.71667	157.8
5.73333	157.9
5.75000	157.8
5.76667	157.9
5.78333	157.5
5.80000	157.8
5.81667	158.0
5.83333	157.6
5.85000	157.8
5.86667	157.9
5.88333	157.9
5.90000	157.8
5.91667	157.8
5.93333	157.9
5.95000	157.6
5.96667	157.6
5.98333	157.9
6.00000	158.2

[LC Status Trace(UV Cell Temp.)]
Interval(msec)	1000
# of Points	361
Start Time(min)	0.000
End Time(min)	6.000
Intensity Units	C
Intensity Multiplier	1
R.Time (min)	Intensity
0.00000	40.00
0.01667	40.00
0.03333	40.00
0.05000	39.99
0.06667	40.00
0.08333	39.99
0.10000	39.96
0.11667	39.95
0.13333	39.98
0.15000	40.00
0.16667	40.03
0.18333	40.00
0.20000	40.00
0.21667	40.00
0.23333	40.00
0.25000	39.97
0.26667	39.98
0.28333	39.97
0.30000	39.93
0.31667	39.95
0.33333	39.93
0.35000	39.95
0.36667	39.96
0.38333	39.93
0.40000	39.93
0.41667	39.93
0.43333	39.93
0.45000	39.91
0.46667	39.91
0.48333	39.95
0.50000	39.97
0.51667	39.98
0.53333	39.98
0.55000	39.98
0.56667	39.96
0.58333	39.93
0.60000	39.93
0.61667	39.93
0.63333	39.91
0.65000	39.93
0.66667	39.95
0.68333	39.93
0.70000	39.99
0.71667	40.00
0.73333	40.00
0.75000	39.99
0.76667	39.99
0.78333	40.00
0.80000	39.99
0.81667	40.00
0.83333	40.00
0.85000	40.00
0.86667	40.00
0.88333	40.00
0.90000	40.00
0.91667	40.00
0.93333	40.00
0.95000	40.00
0.96667	40.00
0.98333	40.02
1.00000	40.02
1.01667	39.99
1.03333	40.03
1.05000	40.03
1.06667	40.03
1.08333	40.00
1.10000	40.00
1.11667	39.99
1.13333	39.99
1.15000	40.02
1.16667	40.00
1.18333	39.99
1.20000	40.00
1.21667	40.00
1.23333	40.00
1.25000	39.99
1.26667	40.00
1.28333	39.97
1.30000	39.93
1.31667	39.95
1.33333	39.98
1.35000	39.93
1.36667	39.93
1.38333	39.91
1.40000	39.91
1.41667	39.91
1.43333	39.98
1.45000	40.00
1.46667	40.00
1.48333	40.00
1.50000	40.03
1.51667	39.99
1.53333	39.99
1.55000	40.00
1.56667	39.99
1.58333	39.96
1.60000	39.97
1.61667	40.00
1.63333	40.00
1.65000	39.99
1.66667	40.00
1.68333	40.02
1.70000	40.00
1.71667	40.02
1.73333	40.02
1.75000	39.99
1.76667	39.99
1.78333	40.00
1.80000	39.98
1.81667	39.93
1.83333	39.93
1.85000	39.99
1.86667	40.02
1.88333	40.03
1.90000	40.00
1.91667	40.00
1.93333	40.00
1.95000	39.98
1.96667	39.96
1.98333	39.99
2.00000	40.03
2.01667	40.00
2.03333	39.91
2.05000	39.95
2.06667	39.99
2.08333	40.02
2.10000	40.00
2.11667	40.00
2.13333	39.97
2.15000	40.00
2.16667	40.00
2.18333	40.00
2.20000	40.00
2.21667	40.00
2.23333	40.00
2.25000	39.97
2.26667	39.99
2.28333	40.03
2.30000	40.00
2.31667	40.00
2.33333	40.00
2.35000	40.03
2.36667	40.03
2.38333	40.02
2.40000	40.00
2.41667	39.99
2.43333	40.02
2.45000	40.02
2.46667	39.99
2.48333	39.96
2.50000	39.99
2.51667	40.00
2.53333	40.03
2.55000	39.99
2.56667	39.99
2.58333	40.00
2.60000	40.00
2.61667	40.00
2.63333	39.99
2.65000	40.03
2.66667	40.00
2.68333	40.00
2.70000	40.00
2.71667	40.03
2.73333	39.99
2.75000	40.00
2.76667	39.99
2.78333	39.97
2.80000	39.99
2.81667	40.00
2.83333	40.00
2.85000	40.00
2.86667	39.99
2.88333	40.00
2.90000	40.05
2.91667	40.02
2.93333	40.00
2.95000	40.03
2.96667	40.02
2.98333	40.02
3.00000	40.00
3.01667	40.00
3.03333	40.00
3.05000	40.00
3.06667	39.96
3.08333	39.98
3.10000	40.03
3.11667	40.00
3.13333	40.02
3.15000	40.00
3.16667	40.00
3.18333	39.97
3.20000	39.97
3.21667	40.00
3.23333	40.00
3.25000	40.03
3.26667	40.02
3.28333	39.99
3.30000	40.00
3.31667	40.02
3.33333	40.00
3.35000	39.93
3.36667	39.93
3.38333	39.97
3.40000	40.00
3.41667	40.03
3.43333	40.03
3.45000	40.00
3.46667	40.00
3.48333	40.00
3.50000	40.00
3.51667	40.02
3.53333	40.05
3.55000	40.05
3.56667	40.00
3.58333	39.97
3.60000	39.96
3.61667	40.00
3.63333	40.00
3.65000	40.00
3.66667	40.00
3.68333	40.00
3.70000	40.03
3.71667	40.00
3.73333	40.00
3.75000	39.99
3.76667	39.97
3.78333	39.96
3.80000	40.00
3.81667	39.99
3.83333	40.00
3.85000	40.00
3.86667	40.00
3.88333	39.99
3.90000	40.00
3.91667	40.00
3.93333	40.00
3.95000	40.00
3.96667	40.00
3.98333	39.99
4.00000	40.00
4.01667	40.00
4.03333	39.99
4.05000	40.02
4.06667	40.00
4.08333	40.00
4.10000	40.00
4.11667	40.00
4.13333	39.99
4.15000	40.00
4.16667	40.00
4.18333	40.00
4.20000	40.00
4.21667	40.00
4.23333	40.00
4.25000	40.00
4.26667	39.97
4.28333	39.97
4.30000	39.99
4.31667	39.93
4.33333	39.99
4.35000	40.02
4.36667	40.02
4.38333	40.00
4.40000	40.00
4.41667	40.00
4.43333	40.00
4.45000	40.00
4.46667	39.98
4.48333	39.99
4.50000	39.98
4.51667	39.99
4.53333	39.96
4.55000	40.00
4.56667	40.00
4.58333	40.00
4.60000	40.00
4.61667	40.00
4.63333	39.99
4.65000	40.00
4.66667	40.00
4.68333	40.00
4.70000	39.99
4.71667	39.96
4.73333	39.91
4.75000	39.93
4.76667	39.99
4.78333	40.00
4.80000	40.02
4.81667	40.00
4.83333	40.02
4.85000	40.00
4.86667	40.00
4.88333	40.00
4.90000	40.00
4.91667	40.00
4.93333	40.00
4.95000	39.97
4.96667	39.93
4.98333	39.98
5.00000	39.95
5.01667	39.99
5.03333	40.00
5.05000	40.00
5.06667	40.02
5.08333	40.02
5.10000	40.00
5.11667	40.00
5.13333	40.00
5.15000	40.00
5.16667	40.00
5.18333	40.00
5.20000	39.99
5.21667	39.99
5.23333	40.00
5.25000	40.00
5.26667	40.06
5.28333	40.03
5.30000	40.00
5.31667	40.02
5.33333	40.00
5.35000	40.00
5.36667	39.99
5.38333	39.99
5.40000	39.96
5.41667	39.91
5.43333	39.93
5.45000	39.93
5.46667	40.03
5.48333	40.00
5.50000	39.99
5.51667	40.00
5.53333	39.99
5.55000	39.98
5.56667	40.00
5.58333	39.99
5.60000	39.99
5.61667	40.00
5.63333	40.02
5.65000	40.00
5.66667	40.00
5.68333	40.00
5.70000	39.98
5.71667	40.00
5.73333	40.00
5.75000	40.00
5.76667	39.99
5.78333	39.99
5.80000	40.00
5.81667	40.05
5.83333	40.00
5.85000	40.00
5.86667	40.00
5.88333	40.00
5.90000	39.99
5.91667	40.00
5.93333	40.00
5.95000	39.99
5.96667	39.97
5.98333	39.95
6.00000	39.93

[Fraction Collection Report]
# of Fractions	0

