[Header]
Application Name	LCsolution
Version	1.25
Data File Name	C:\LabSolutions\Data\Caffeine\20161014\std-25.lcd
Output Date	2019/1/7
Output Time	下午 06:31:46

[File Information]
Type	Data File
Generated	2016/10/17 下午 01:02:00
Generated by	Admin
Modified	2016/10/28 下午 07:54:48
Modified by	Admin

[Sample Information]
Operator Name	Admin
Acquired	2016/10/17 下午 01:02:06
Sample Type	1:Standard
Level	2
Sample Name	咖啡因-樣品20161017
Sample ID	
ISTD Amount 1	1
ISTD Amount 2	1
ISTD Amount 3	1
ISTD Amount 4	1
ISTD Amount 5	1
ISTD Amount 6	1
ISTD Amount 7	1
ISTD Amount 8	1
ISTD Amount 9	1
ISTD Amount 10	1
ISTD Amount 11	1
ISTD Amount 12	1
ISTD Amount 13	1
ISTD Amount 14	1
ISTD Amount 15	1
ISTD Amount 16	1
ISTD Amount 17	1
ISTD Amount 18	1
ISTD Amount 19	1
ISTD Amount 20	1
ISTD Amount 21	1
ISTD Amount 22	1
ISTD Amount 23	1
ISTD Amount 24	1
ISTD Amount 25	1
ISTD Amount 26	1
ISTD Amount 27	1
ISTD Amount 28	1
ISTD Amount 29	1
ISTD Amount 30	1
ISTD Amount 31	1
ISTD Amount 32	1
Sample Amount	1
Dilution Factor	1
Vial#	
Injection Volume	10

[Original Files]
Data File	C:\LabSolutions\Data\Caffeine\20161014\std-25.lcd
Method File	C:\LabSolutions\Method\Caffeine咖啡因\NEW Caffeine 280nm  XDB-C18 5um 4.6x150mm -10ul-1.0mL  B 30%MeOH in H2O.lcm
Batch File	
Report Format File	C:\LabSolutions\LCsolution\System\Default.lcr
Tuning File	

[File Description]


[Configuration]
# of Detectors	1
Detector ID	Detector A
Detector Name	Detector A
# of Channels	1

[Peak Table(Detector A-Ch1)]
# of Peaks	3
Peak#	R.Time	I.Time	F.Time	Area	Height	A/H	Conc.	Mark	ID#	Name	k'	Plate #	Plate Ht.	Tailing	Resolution	Sep.Factor	Conc. %	Norm Conc.
1	2.333	1.883	2.517	14222	429	33.1790	0.0000	 V 			0.000	2	127616.080	0.000	0.000	0.000	0.0000	0.0000
2	4.177	2.758	4.458	174985	3000	58.3210	18.0480	 V 	1	咖啡因	0.790	77	3264.578	0.000	0.430	0.000	100.0000	100.0000
3	4.653	4.458	5.967	1080560	98092	11.0160	0.0000	 V 			0.994	4209	59.402	1.387	0.433	1.258	0.0000	0.0000

[Peak Table(PDA-Ch1)]
# of Peaks	0

[Compound Results(Detector A)]
# of IDs	1
ID#	Name	R.Time	Area	Height	Conc.	Curve	3rd	2nd	1st	Constant	Conc. %	Norm Conc.
1	咖啡因	4.177	174985	3000	18.0480	Linear	0.0	0.0	1.893854e-005	14.734	100.0000	100.0000

[Compound Results(PDA)]
# of IDs	0

[Group Results(Detector A)]
# of Groups	0

[Group Results(PDA)]
# of Groups	0

[LC Chromatogram(Detector A-Ch1)]
Interval(msec)	500
# of Points	721
Start Time(min)	0.000
End Time(min)	6.000
Intensity Units	mV
Intensity Multiplier	0.001
Wavelength(nm)	280
R.Time (min)	Intensity
0.00000	407
0.00833	407
0.01667	0
0.02500	-1
0.03333	-1
0.04167	-2
0.05000	-3
0.05833	-6
0.06667	-7
0.07500	-9
0.08333	-11
0.09167	-12
0.10000	-13
0.10833	-13
0.11667	-14
0.12500	-15
0.13333	-15
0.14167	-16
0.15000	-16
0.15833	-17
0.16667	-17
0.17500	-19
0.18333	-21
0.19167	-22
0.20000	-25
0.20833	-28
0.21667	-31
0.22500	-33
0.23333	-36
0.24167	-39
0.25000	-42
0.25833	-44
0.26667	-46
0.27500	-47
0.28333	-49
0.29167	-51
0.30000	-53
0.30833	-56
0.31667	-58
0.32500	-60
0.33333	-61
0.34167	-63
0.35000	-63
0.35833	-64
0.36667	-66
0.37500	-67
0.38333	-68
0.39167	-69
0.40000	-70
0.40833	-71
0.41667	-71
0.42500	-72
0.43333	-73
0.44167	-75
0.45000	-76
0.45833	-77
0.46667	-78
0.47500	-79
0.48333	-80
0.49167	-80
0.50000	-80
0.50833	-81
0.51667	-82
0.52500	-82
0.53333	-83
0.54167	-83
0.55000	-83
0.55833	-86
0.56667	-87
0.57500	-88
0.58333	-88
0.59167	-88
0.60000	-87
0.60833	-88
0.61667	-89
0.62500	-91
0.63333	-93
0.64167	-95
0.65000	-97
0.65833	-97
0.66667	-98
0.67500	-99
0.68333	-100
0.69167	-102
0.70000	-104
0.70833	-106
0.71667	-107
0.72500	-107
0.73333	-108
0.74167	-110
0.75000	-113
0.75833	-116
0.76667	-118
0.77500	-120
0.78333	-122
0.79167	-125
0.80000	-127
0.80833	-130
0.81667	-132
0.82500	-134
0.83333	-137
0.84167	-139
0.85000	-142
0.85833	-144
0.86667	-147
0.87500	-149
0.88333	-152
0.89167	-155
0.90000	-159
0.90833	-163
0.91667	-165
0.92500	-168
0.93333	-172
0.94167	-175
0.95000	-178
0.95833	-178
0.96667	-178
0.97500	-176
0.98333	-172
0.99167	-165
1.00000	-158
1.00833	-153
1.01667	-150
1.02500	-149
1.03333	-150
1.04167	-155
1.05000	-161
1.05833	-166
1.06667	-163
1.07500	-153
1.08333	-132
1.09167	-101
1.10000	-61
1.10833	-18
1.11667	25
1.12500	63
1.13333	91
1.14167	108
1.15000	114
1.15833	113
1.16667	105
1.17500	95
1.18333	88
1.19167	87
1.20000	100
1.20833	133
1.21667	197
1.22500	292
1.23333	409
1.24167	531
1.25000	636
1.25833	708
1.26667	737
1.27500	722
1.28333	671
1.29167	595
1.30000	508
1.30833	419
1.31667	335
1.32500	262
1.33333	200
1.34167	147
1.35000	103
1.35833	66
1.36667	34
1.37500	7
1.38333	-18
1.39167	-39
1.40000	-57
1.40833	-71
1.41667	-83
1.42500	-92
1.43333	-97
1.44167	-101
1.45000	-106
1.45833	-116
1.46667	-134
1.47500	-159
1.48333	-190
1.49167	-226
1.50000	-261
1.50833	-291
1.51667	-315
1.52500	-327
1.53333	-325
1.54167	-314
1.55000	-295
1.55833	-272
1.56667	-249
1.57500	-227
1.58333	-207
1.59167	-191
1.60000	-178
1.60833	-168
1.61667	-160
1.62500	-155
1.63333	-152
1.64167	-148
1.65000	-145
1.65833	-142
1.66667	-138
1.67500	-134
1.68333	-130
1.69167	-126
1.70000	-122
1.70833	-119
1.71667	-115
1.72500	-113
1.73333	-111
1.74167	-109
1.75000	-107
1.75833	-105
1.76667	-104
1.77500	-103
1.78333	-103
1.79167	-103
1.80000	-103
1.80833	-103
1.81667	-100
1.82500	-96
1.83333	-96
1.84167	-97
1.85000	-97
1.85833	-96
1.86667	-95
1.87500	-93
1.88333	-92
1.89167	-89
1.90000	-88
1.90833	-86
1.91667	-84
1.92500	-81
1.93333	-79
1.94167	-76
1.95000	-73
1.95833	-70
1.96667	-67
1.97500	-63
1.98333	-60
1.99167	-56
2.00000	-52
2.00833	-48
2.01667	-45
2.02500	-40
2.03333	-37
2.04167	-33
2.05000	-30
2.05833	-26
2.06667	-24
2.07500	-22
2.08333	-20
2.09167	-18
2.10000	-15
2.10833	-13
2.11667	-11
2.12500	-9
2.13333	-6
2.14167	-2
2.15000	0
2.15833	3
2.16667	6
2.17500	9
2.18333	11
2.19167	14
2.20000	16
2.20833	18
2.21667	20
2.22500	22
2.23333	25
2.24167	27
2.25000	29
2.25833	32
2.26667	34
2.27500	36
2.28333	37
2.29167	38
2.30000	38
2.30833	39
2.31667	40
2.32500	43
2.33333	46
2.34167	47
2.35000	48
2.35833	47
2.36667	47
2.37500	47
2.38333	46
2.39167	44
2.40000	42
2.40833	41
2.41667	40
2.42500	39
2.43333	38
2.44167	38
2.45000	37
2.45833	36
2.46667	36
2.47500	37
2.48333	37
2.49167	38
2.50000	39
2.50833	40
2.51667	42
2.52500	44
2.53333	47
2.54167	51
2.55000	55
2.55833	59
2.56667	64
2.57500	68
2.58333	72
2.59167	76
2.60000	79
2.60833	82
2.61667	84
2.62500	87
2.63333	89
2.64167	91
2.65000	93
2.65833	96
2.66667	98
2.67500	98
2.68333	98
2.69167	99
2.70000	99
2.70833	100
2.71667	101
2.72500	101
2.73333	102
2.74167	104
2.75000	104
2.75833	106
2.76667	108
2.77500	111
2.78333	115
2.79167	119
2.80000	123
2.80833	127
2.81667	131
2.82500	137
2.83333	141
2.84167	146
2.85000	149
2.85833	153
2.86667	156
2.87500	160
2.88333	163
2.89167	167
2.90000	170
2.90833	174
2.91667	178
2.92500	183
2.93333	187
2.94167	191
2.95000	194
2.95833	198
2.96667	202
2.97500	206
2.98333	211
2.99167	216
3.00000	220
3.00833	227
3.01667	233
3.02500	240
3.03333	247
3.04167	254
3.05000	261
3.05833	269
3.06667	278
3.07500	287
3.08333	295
3.09167	305
3.10000	313
3.10833	321
3.11667	329
3.12500	339
3.13333	349
3.14167	359
3.15000	369
3.15833	379
3.16667	388
3.17500	397
3.18333	406
3.19167	415
3.20000	425
3.20833	433
3.21667	442
3.22500	452
3.23333	463
3.24167	473
3.25000	482
3.25833	493
3.26667	505
3.27500	516
3.28333	527
3.29167	538
3.30000	549
3.30833	560
3.31667	571
3.32500	583
3.33333	595
3.34167	607
3.35000	619
3.35833	632
3.36667	645
3.37500	660
3.38333	674
3.39167	687
3.40000	700
3.40833	714
3.41667	729
3.42500	743
3.43333	757
3.44167	772
3.45000	788
3.45833	803
3.46667	819
3.47500	835
3.48333	852
3.49167	869
3.50000	885
3.50833	902
3.51667	918
3.52500	936
3.53333	955
3.54167	974
3.55000	993
3.55833	1012
3.56667	1030
3.57500	1050
3.58333	1069
3.59167	1089
3.60000	1108
3.60833	1128
3.61667	1148
3.62500	1167
3.63333	1187
3.64167	1208
3.65000	1230
3.65833	1253
3.66667	1276
3.67500	1297
3.68333	1320
3.69167	1342
3.70000	1365
3.70833	1388
3.71667	1411
3.72500	1433
3.73333	1456
3.74167	1480
3.75000	1504
3.75833	1528
3.76667	1553
3.77500	1577
3.78333	1602
3.79167	1626
3.80000	1651
3.80833	1677
3.81667	1702
3.82500	1726
3.83333	1749
3.84167	1772
3.85000	1796
3.85833	1820
3.86667	1843
3.87500	1868
3.88333	1893
3.89167	1919
3.90000	1945
3.90833	1970
3.91667	1994
3.92500	2019
3.93333	2043
3.94167	2067
3.95000	2091
3.95833	2114
3.96667	2138
3.97500	2161
3.98333	2183
3.99167	2205
4.00000	2226
4.00833	2246
4.01667	2265
4.02500	2286
4.03333	2305
4.04167	2323
4.05000	2340
4.05833	2356
4.06667	2372
4.07500	2387
4.08333	2401
4.09167	2415
4.10000	2427
4.10833	2439
4.11667	2449
4.12500	2458
4.13333	2464
4.14167	2471
4.15000	2475
4.15833	2478
4.16667	2482
4.17500	2484
4.18333	2484
4.19167	2483
4.20000	2480
4.20833	2475
4.21667	2470
4.22500	2463
4.23333	2454
4.24167	2444
4.25000	2433
4.25833	2420
4.26667	2405
4.27500	2389
4.28333	2372
4.29167	2354
4.30000	2334
4.30833	2312
4.31667	2288
4.32500	2263
4.33333	2236
4.34167	2208
4.35000	2179
4.35833	2148
4.36667	2116
4.37500	2084
4.38333	2050
4.39167	2015
4.40000	1979
4.40833	1943
4.41667	1905
4.42500	1870
4.43333	1836
4.44167	1809
4.45000	1791
4.45833	1790
4.46667	1822
4.47500	1914
4.48333	2100
4.49167	2434
4.50000	2988
4.50833	3860
4.51667	5170
4.52500	7060
4.53333	9678
4.54167	13166
4.55000	17639
4.55833	23160
4.56667	29718
4.57500	37211
4.58333	45442
4.59167	54121
4.60000	62891
4.60833	71358
4.61667	79124
4.62500	85824
4.63333	91164
4.64167	94943
4.65000	97067
4.65833	97541
4.66667	96466
4.67500	94015
4.68333	90413
4.69167	85908
4.70000	80753
4.70833	75189
4.71667	69426
4.72500	63639
4.73333	57968
4.74167	52517
4.75000	47355
4.75833	42529
4.76667	38059
4.77500	33950
4.78333	30196
4.79167	26784
4.80000	23695
4.80833	20913
4.81667	18412
4.82500	16171
4.83333	14169
4.84167	12385
4.85000	10800
4.85833	9397
4.86667	8157
4.87500	7065
4.88333	6106
4.89167	5266
4.90000	4533
4.90833	3895
4.91667	3340
4.92500	2859
4.93333	2443
4.94167	2085
4.95000	1777
4.95833	1511
4.96667	1281
4.97500	1084
4.98333	915
4.99167	769
5.00000	643
5.00833	534
5.01667	440
5.02500	357
5.03333	287
5.04167	226
5.05000	172
5.05833	125
5.06667	81
5.07500	42
5.08333	6
5.09167	-26
5.10000	-54
5.10833	-81
5.11667	-104
5.12500	-126
5.13333	-147
5.14167	-166
5.15000	-184
5.15833	-201
5.16667	-217
5.17500	-231
5.18333	-246
5.19167	-259
5.20000	-273
5.20833	-286
5.21667	-298
5.22500	-309
5.23333	-320
5.24167	-330
5.25000	-341
5.25833	-350
5.26667	-358
5.27500	-366
5.28333	-374
5.29167	-382
5.30000	-390
5.30833	-397
5.31667	-404
5.32500	-411
5.33333	-419
5.34167	-426
5.35000	-432
5.35833	-437
5.36667	-443
5.37500	-448
5.38333	-453
5.39167	-458
5.40000	-463
5.40833	-470
5.41667	-477
5.42500	-482
5.43333	-486
5.44167	-489
5.45000	-492
5.45833	-496
5.46667	-499
5.47500	-504
5.48333	-507
5.49167	-511
5.50000	-514
5.50833	-517
5.51667	-520
5.52500	-524
5.53333	-527
5.54167	-530
5.55000	-533
5.55833	-537
5.56667	-540
5.57500	-542
5.58333	-546
5.59167	-549
5.60000	-551
5.60833	-553
5.61667	-555
5.62500	-557
5.63333	-559
5.64167	-561
5.65000	-564
5.65833	-566
5.66667	-568
5.67500	-570
5.68333	-571
5.69167	-573
5.70000	-575
5.70833	-577
5.71667	-580
5.72500	-582
5.73333	-585
5.74167	-587
5.75000	-589
5.75833	-591
5.76667	-593
5.77500	-594
5.78333	-596
5.79167	-598
5.80000	-600
5.80833	-603
5.81667	-606
5.82500	-608
5.83333	-609
5.84167	-611
5.85000	-613
5.85833	-615
5.86667	-617
5.87500	-621
5.88333	-624
5.89167	-626
5.90000	-627
5.90833	-629
5.91667	-632
5.92500	-635
5.93333	-638
5.94167	-641
5.95000	-643
5.95833	-643
5.96667	-645
5.97500	-648
5.98333	-650
5.99167	-652
6.00000	-653

[LC Status Trace(Pump A Pressure)]
Interval(msec)	1000
# of Points	361
Start Time(min)	0.000
End Time(min)	6.000
Intensity Units	kgf/cm2
Intensity Multiplier	1
R.Time (min)	Intensity
0.00000	157.2
0.01667	157.2
0.03333	157.2
0.05000	157.6
0.06667	157.4
0.08333	157.5
0.10000	157.9
0.11667	157.9
0.13333	157.9
0.15000	158.3
0.16667	158.3
0.18333	158.2
0.20000	158.2
0.21667	158.4
0.23333	158.2
0.25000	158.3
0.26667	158.2
0.28333	158.3
0.30000	158.0
0.31667	158.3
0.33333	158.2
0.35000	158.3
0.36667	158.2
0.38333	158.2
0.40000	158.3
0.41667	158.3
0.43333	158.3
0.45000	158.2
0.46667	158.3
0.48333	158.3
0.50000	158.4
0.51667	158.2
0.53333	158.4
0.55000	158.2
0.56667	158.4
0.58333	158.0
0.60000	158.2
0.61667	158.3
0.63333	158.2
0.65000	158.3
0.66667	158.4
0.68333	158.3
0.70000	158.2
0.71667	158.0
0.73333	158.3
0.75000	158.0
0.76667	158.3
0.78333	158.2
0.80000	158.3
0.81667	158.2
0.83333	158.2
0.85000	158.2
0.86667	158.2
0.88333	158.3
0.90000	158.0
0.91667	158.2
0.93333	158.2
0.95000	158.3
0.96667	158.2
0.98333	158.2
1.00000	158.2
1.01667	158.2
1.03333	158.0
1.05000	158.3
1.06667	158.0
1.08333	158.2
1.10000	158.0
1.11667	158.2
1.13333	158.0
1.15000	158.3
1.16667	158.3
1.18333	158.2
1.20000	158.0
1.21667	158.3
1.23333	157.9
1.25000	158.0
1.26667	157.9
1.28333	157.9
1.30000	158.2
1.31667	157.9
1.33333	158.3
1.35000	158.2
1.36667	158.2
1.38333	158.0
1.40000	158.2
1.41667	158.0
1.43333	158.0
1.45000	157.9
1.46667	158.0
1.48333	158.0
1.50000	158.0
1.51667	158.2
1.53333	157.9
1.55000	158.0
1.56667	158.0
1.58333	157.9
1.60000	157.9
1.61667	158.3
1.63333	157.9
1.65000	157.8
1.66667	157.9
1.68333	157.9
1.70000	158.0
1.71667	158.2
1.73333	158.0
1.75000	158.0
1.76667	157.9
1.78333	157.9
1.80000	157.9
1.81667	158.0
1.83333	157.8
1.85000	157.9
1.86667	157.9
1.88333	157.9
1.90000	157.9
1.91667	157.8
1.93333	157.9
1.95000	157.9
1.96667	158.0
1.98333	157.9
2.00000	157.9
2.01667	157.8
2.03333	157.5
2.05000	157.6
2.06667	157.9
2.08333	157.8
2.10000	157.8
2.11667	157.8
2.13333	157.6
2.15000	157.6
2.16667	157.9
2.18333	157.6
2.20000	157.8
2.21667	157.6
2.23333	157.6
2.25000	158.0
2.26667	157.6
2.28333	157.6
2.30000	157.8
2.31667	157.5
2.33333	157.6
2.35000	157.6
2.36667	157.6
2.38333	157.5
2.40000	157.6
2.41667	157.9
2.43333	157.5
2.45000	157.5
2.46667	157.5
2.48333	157.8
2.50000	157.6
2.51667	157.8
2.53333	157.6
2.55000	157.6
2.56667	157.8
2.58333	157.5
2.60000	157.5
2.61667	157.8
2.63333	157.8
2.65000	157.5
2.66667	157.4
2.68333	157.6
2.70000	157.6
2.71667	157.6
2.73333	157.6
2.75000	157.5
2.76667	157.6
2.78333	157.6
2.80000	157.6
2.81667	157.6
2.83333	157.4
2.85000	157.5
2.86667	157.4
2.88333	157.4
2.90000	157.5
2.91667	157.4
2.93333	157.6
2.95000	157.4
2.96667	157.5
2.98333	157.5
3.00000	157.5
3.01667	157.4
3.03333	157.2
3.05000	157.6
3.06667	157.4
3.08333	157.4
3.10000	157.4
3.11667	157.4
3.13333	157.5
3.15000	157.5
3.16667	157.5
3.18333	157.4
3.20000	157.4
3.21667	157.2
3.23333	157.4
3.25000	157.2
3.26667	157.5
3.28333	157.2
3.30000	157.4
3.31667	157.2
3.33333	157.2
3.35000	157.4
3.36667	157.2
3.38333	157.2
3.40000	157.2
3.41667	157.2
3.43333	157.1
3.45000	157.4
3.46667	157.2
3.48333	157.2
3.50000	157.1
3.51667	157.1
3.53333	157.0
3.55000	157.4
3.56667	157.2
3.58333	157.1
3.60000	157.2
3.61667	157.2
3.63333	157.2
3.65000	157.1
3.66667	157.1
3.68333	157.1
3.70000	157.1
3.71667	157.2
3.73333	157.4
3.75000	157.4
3.76667	157.4
3.78333	157.1
3.80000	157.2
3.81667	157.1
3.83333	157.4
3.85000	157.1
3.86667	157.1
3.88333	157.2
3.90000	157.1
3.91667	157.2
3.93333	157.2
3.95000	157.2
3.96667	157.4
3.98333	157.2
4.00000	157.2
4.01667	157.5
4.03333	157.4
4.05000	157.2
4.06667	157.4
4.08333	157.1
4.10000	157.2
4.11667	157.1
4.13333	157.2
4.15000	157.4
4.16667	157.4
4.18333	157.4
4.20000	157.2
4.21667	157.2
4.23333	157.4
4.25000	157.1
4.26667	157.1
4.28333	157.2
4.30000	157.0
4.31667	157.1
4.33333	157.4
4.35000	157.2
4.36667	157.2
4.38333	157.2
4.40000	157.4
4.41667	157.1
4.43333	157.2
4.45000	157.2
4.46667	157.1
4.48333	157.2
4.50000	157.1
4.51667	157.2
4.53333	157.1
4.55000	157.2
4.56667	157.1
4.58333	157.0
4.60000	157.2
4.61667	157.0
4.63333	157.2
4.65000	157.1
4.66667	157.4
4.68333	157.1
4.70000	157.2
4.71667	157.2
4.73333	157.1
4.75000	157.2
4.76667	157.2
4.78333	157.2
4.80000	157.0
4.81667	157.4
4.83333	157.1
4.85000	157.1
4.86667	157.2
4.88333	157.2
4.90000	157.1
4.91667	157.4
4.93333	157.4
4.95000	157.4
4.96667	157.2
4.98333	157.2
5.00000	157.4
5.01667	157.4
5.03333	157.2
5.05000	157.2
5.06667	157.4
5.08333	157.2
5.10000	157.4
5.11667	157.5
5.13333	157.4
5.15000	157.4
5.16667	157.2
5.18333	157.2
5.20000	157.4
5.21667	157.2
5.23333	157.2
5.25000	157.5
5.26667	157.2
5.28333	157.2
5.30000	157.4
5.31667	157.5
5.33333	157.4
5.35000	157.4
5.36667	157.2
5.38333	157.4
5.40000	157.2
5.41667	157.4
5.43333	157.2
5.45000	157.2
5.46667	157.2
5.48333	157.4
5.50000	157.4
5.51667	157.5
5.53333	157.1
5.55000	157.4
5.56667	157.2
5.58333	157.4
5.60000	157.4
5.61667	157.4
5.63333	157.4
5.65000	157.5
5.66667	157.1
5.68333	157.4
5.70000	157.6
5.71667	157.4
5.73333	157.5
5.75000	157.6
5.76667	157.5
5.78333	157.6
5.80000	157.4
5.81667	157.6
5.83333	157.6
5.85000	157.5
5.86667	157.6
5.88333	157.8
5.90000	157.8
5.91667	157.8
5.93333	157.6
5.95000	157.6
5.96667	157.6
5.98333	157.6
6.00000	157.6

[LC Status Trace(UV Cell Temp.)]
Interval(msec)	1000
# of Points	361
Start Time(min)	0.000
End Time(min)	6.000
Intensity Units	C
Intensity Multiplier	1
R.Time (min)	Intensity
0.00000	39.98
0.01667	39.98
0.03333	39.99
0.05000	40.02
0.06667	40.02
0.08333	40.00
0.10000	39.97
0.11667	40.00
0.13333	40.00
0.15000	40.00
0.16667	40.03
0.18333	40.05
0.20000	40.07
0.21667	40.03
0.23333	40.00
0.25000	40.00
0.26667	40.00
0.28333	40.03
0.30000	40.03
0.31667	39.96
0.33333	39.96
0.35000	39.99
0.36667	40.00
0.38333	40.02
0.40000	40.00
0.41667	40.00
0.43333	39.98
0.45000	39.99
0.46667	40.03
0.48333	40.00
0.50000	40.00
0.51667	39.98
0.53333	40.00
0.55000	39.98
0.56667	40.00
0.58333	40.00
0.60000	40.00
0.61667	39.99
0.63333	39.99
0.65000	39.95
0.66667	39.99
0.68333	39.99
0.70000	40.00
0.71667	40.00
0.73333	40.00
0.75000	40.02
0.76667	40.00
0.78333	40.00
0.80000	40.00
0.81667	40.00
0.83333	39.98
0.85000	39.97
0.86667	39.98
0.88333	39.97
0.90000	40.00
0.91667	39.99
0.93333	39.99
0.95000	40.00
0.96667	40.02
0.98333	39.99
1.00000	40.00
1.01667	40.02
1.03333	40.02
1.05000	39.93
1.06667	39.95
1.08333	39.93
1.10000	39.93
1.11667	39.97
1.13333	39.93
1.15000	40.00
1.16667	39.99
1.18333	40.00
1.20000	39.99
1.21667	39.99
1.23333	40.00
1.25000	40.02
1.26667	40.05
1.28333	40.02
1.30000	40.06
1.31667	40.03
1.33333	40.00
1.35000	40.00
1.36667	39.98
1.38333	39.93
1.40000	39.96
1.41667	39.95
1.43333	39.93
1.45000	39.97
1.46667	40.00
1.48333	40.00
1.50000	40.00
1.51667	40.00
1.53333	40.00
1.55000	40.00
1.56667	40.03
1.58333	40.00
1.60000	40.00
1.61667	40.00
1.63333	40.00
1.65000	40.00
1.66667	39.99
1.68333	40.00
1.70000	40.00
1.71667	39.99
1.73333	40.00
1.75000	40.00
1.76667	40.00
1.78333	39.99
1.80000	40.00
1.81667	40.00
1.83333	39.99
1.85000	40.00
1.86667	40.00
1.88333	40.00
1.90000	40.00
1.91667	39.98
1.93333	39.99
1.95000	40.00
1.96667	40.00
1.98333	40.00
2.00000	40.00
2.01667	40.00
2.03333	39.96
2.05000	39.97
2.06667	40.00
2.08333	40.02
2.10000	40.00
2.11667	40.02
2.13333	40.00
2.15000	39.98
2.16667	39.93
2.18333	39.93
2.20000	39.96
2.21667	39.97
2.23333	40.00
2.25000	40.00
2.26667	40.00
2.28333	40.00
2.30000	40.00
2.31667	39.99
2.33333	39.99
2.35000	39.98
2.36667	39.97
2.38333	39.97
2.40000	39.93
2.41667	39.99
2.43333	40.00
2.45000	39.99
2.46667	40.00
2.48333	39.99
2.50000	40.00
2.51667	40.00
2.53333	40.00
2.55000	40.02
2.56667	39.97
2.58333	39.99
2.60000	40.00
2.61667	39.99
2.63333	40.00
2.65000	39.99
2.66667	39.99
2.68333	39.95
2.70000	39.96
2.71667	39.99
2.73333	40.00
2.75000	40.00
2.76667	39.99
2.78333	40.00
2.80000	39.97
2.81667	39.96
2.83333	39.93
2.85000	39.97
2.86667	40.00
2.88333	40.00
2.90000	40.00
2.91667	39.99
2.93333	40.00
2.95000	40.00
2.96667	39.99
2.98333	40.05
3.00000	39.98
3.01667	39.99
3.03333	39.96
3.05000	39.93
3.06667	39.96
3.08333	40.00
3.10000	39.99
3.11667	40.00
3.13333	40.00
3.15000	40.02
3.16667	40.00
3.18333	39.99
3.20000	40.00
3.21667	40.00
3.23333	40.00
3.25000	40.00
3.26667	40.00
3.28333	40.00
3.30000	40.00
3.31667	40.00
3.33333	40.02
3.35000	40.00
3.36667	40.00
3.38333	40.00
3.40000	40.00
3.41667	40.00
3.43333	39.99
3.45000	40.00
3.46667	40.00
3.48333	40.00
3.50000	40.02
3.51667	40.00
3.53333	39.99
3.55000	39.99
3.56667	40.00
3.58333	40.00
3.60000	40.00
3.61667	40.00
3.63333	39.95
3.65000	39.93
3.66667	39.95
3.68333	39.93
3.70000	39.98
3.71667	40.00
3.73333	40.00
3.75000	40.02
3.76667	40.00
3.78333	40.00
3.80000	40.00
3.81667	39.99
3.83333	40.00
3.85000	40.00
3.86667	40.00
3.88333	40.00
3.90000	40.02
3.91667	40.00
3.93333	39.99
3.95000	39.98
3.96667	39.93
3.98333	39.93
4.00000	40.00
4.01667	40.00
4.03333	40.07
4.05000	40.02
4.06667	40.00
4.08333	40.00
4.10000	40.00
4.11667	40.00
4.13333	40.00
4.15000	39.96
4.16667	39.99
4.18333	40.06
4.20000	40.03
4.21667	40.00
4.23333	40.00
4.25000	40.00
4.26667	40.00
4.28333	40.00
4.30000	40.05
4.31667	40.03
4.33333	40.00
4.35000	39.99
4.36667	39.99
4.38333	39.99
4.40000	40.00
4.41667	40.00
4.43333	40.00
4.45000	40.00
4.46667	39.99
4.48333	40.00
4.50000	39.99
4.51667	40.00
4.53333	40.00
4.55000	40.00
4.56667	40.00
4.58333	40.00
4.60000	40.00
4.61667	40.00
4.63333	40.00
4.65000	39.99
4.66667	40.00
4.68333	40.00
4.70000	40.00
4.71667	40.00
4.73333	40.00
4.75000	40.00
4.76667	40.00
4.78333	40.00
4.80000	40.00
4.81667	40.00
4.83333	39.99
4.85000	39.95
4.86667	39.97
4.88333	40.00
4.90000	39.99
4.91667	40.00
4.93333	40.00
4.95000	40.00
4.96667	40.00
4.98333	40.02
5.00000	39.99
5.01667	39.96
5.03333	39.93
5.05000	39.95
5.06667	40.00
5.08333	40.00
5.10000	40.00
5.11667	39.99
5.13333	40.00
5.15000	40.00
5.16667	40.02
5.18333	39.99
5.20000	40.00
5.21667	40.00
5.23333	40.00
5.25000	40.00
5.26667	40.00
5.28333	40.00
5.30000	39.99
5.31667	40.00
5.33333	40.00
5.35000	39.99
5.36667	40.00
5.38333	40.00
5.40000	40.00
5.41667	40.03
5.43333	40.05
5.45000	40.06
5.46667	40.07
5.48333	40.03
5.50000	40.00
5.51667	40.00
5.53333	40.00
5.55000	39.97
5.56667	39.98
5.58333	39.96
5.60000	39.93
5.61667	39.93
5.63333	39.98
5.65000	40.00
5.66667	39.99
5.68333	39.99
5.70000	40.02
5.71667	40.00
5.73333	39.99
5.75000	39.99
5.76667	39.99
5.78333	40.00
5.80000	40.00
5.81667	39.97
5.83333	39.97
5.85000	39.98
5.86667	40.00
5.88333	40.00
5.90000	40.02
5.91667	40.00
5.93333	40.00
5.95000	40.02
5.96667	40.00
5.98333	40.00
6.00000	40.02

[Fraction Collection Report]
# of Fractions	0

