[Header]
Application Name	LCsolution
Version	1.25
Data File Name	C:\LabSolutions\Data\Caffeine\20161014\std-100.lcd
Output Date	2019/1/7
Output Time	下午 06:31:27

[File Information]
Type	Data File
Generated	2016/10/17 下午 01:15:19
Generated by	Admin
Modified	2016/10/31 下午 07:52:28
Modified by	Admin

[Sample Information]
Operator Name	Admin
Acquired	2016/10/17 下午 01:15:27
Sample Type	1:Standard
Level	3
Sample Name	咖啡因-樣品20161017
Sample ID	
ISTD Amount 1	1
ISTD Amount 2	1
ISTD Amount 3	1
ISTD Amount 4	1
ISTD Amount 5	1
ISTD Amount 6	1
ISTD Amount 7	1
ISTD Amount 8	1
ISTD Amount 9	1
ISTD Amount 10	1
ISTD Amount 11	1
ISTD Amount 12	1
ISTD Amount 13	1
ISTD Amount 14	1
ISTD Amount 15	1
ISTD Amount 16	1
ISTD Amount 17	1
ISTD Amount 18	1
ISTD Amount 19	1
ISTD Amount 20	1
ISTD Amount 21	1
ISTD Amount 22	1
ISTD Amount 23	1
ISTD Amount 24	1
ISTD Amount 25	1
ISTD Amount 26	1
ISTD Amount 27	1
ISTD Amount 28	1
ISTD Amount 29	1
ISTD Amount 30	1
ISTD Amount 31	1
ISTD Amount 32	1
Sample Amount	1
Dilution Factor	1
Vial#	
Injection Volume	10

[Original Files]
Data File	C:\LabSolutions\Data\Caffeine\20161014\std-100.lcd
Method File	C:\LabSolutions\Method\Caffeine咖啡因\NEW Caffeine 280nm  XDB-C18 5um 4.6x150mm -10ul-1.0mL  B 30%MeOH in H2O.lcm
Batch File	
Report Format File	C:\LabSolutions\LCsolution\System\Default.lcr
Tuning File	

[File Description]


[Configuration]
# of Detectors	1
Detector ID	Detector A
Detector Name	Detector A
# of Channels	1

[Peak Table(Detector A-Ch1)]
# of Peaks	1
Peak#	R.Time	I.Time	F.Time	Area	Height	A/H	Conc.	Mark	ID#	Name	k'	Plate #	Plate Ht.	Tailing	Resolution	Sep.Factor	Conc. %	Norm Conc.
1	4.656	4.408	5.808	4586430	418703	10.9540	100.0000	   	1	咖啡因	0.000	4102	60.946	1.456	0.000	0.000	100.0000	100.0000

[Peak Table(PDA-Ch1)]
# of Peaks	0

[Compound Results(Detector A)]
# of IDs	1
ID#	Name	R.Time	Area	Height	Conc.	Curve	3rd	2nd	1st	Constant	Conc. %	Norm Conc.
1	咖啡因	4.656	4586430	418703	100.0000	Linear	0.0	0.0	2.154064e-005	1.205344	100.0000	100.0000

[Compound Results(PDA)]
# of IDs	0

[Group Results(Detector A)]
# of Groups	0

[Group Results(PDA)]
# of Groups	0

[LC Chromatogram(Detector A-Ch1)]
Interval(msec)	500
# of Points	721
Start Time(min)	0.000
End Time(min)	6.000
Intensity Units	mV
Intensity Multiplier	0.001
Wavelength(nm)	280
R.Time (min)	Intensity
0.00000	193
0.00833	193
0.01667	28
0.02500	-10
0.03333	-17
0.04167	-24
0.05000	-32
0.05833	-39
0.06667	-46
0.07500	-51
0.08333	-57
0.09167	-63
0.10000	-70
0.10833	-75
0.11667	-80
0.12500	-85
0.13333	-90
0.14167	-96
0.15000	-101
0.15833	-107
0.16667	-112
0.17500	-116
0.18333	-120
0.19167	-125
0.20000	-130
0.20833	-135
0.21667	-139
0.22500	-141
0.23333	-145
0.24167	-149
0.25000	-153
0.25833	-156
0.26667	-159
0.27500	-162
0.28333	-165
0.29167	-168
0.30000	-171
0.30833	-173
0.31667	-175
0.32500	-178
0.33333	-179
0.34167	-181
0.35000	-183
0.35833	-185
0.36667	-188
0.37500	-190
0.38333	-192
0.39167	-195
0.40000	-198
0.40833	-201
0.41667	-202
0.42500	-205
0.43333	-207
0.44167	-208
0.45000	-209
0.45833	-209
0.46667	-210
0.47500	-211
0.48333	-212
0.49167	-213
0.50000	-215
0.50833	-218
0.51667	-221
0.52500	-222
0.53333	-222
0.54167	-222
0.55000	-223
0.55833	-225
0.56667	-227
0.57500	-228
0.58333	-229
0.59167	-230
0.60000	-231
0.60833	-232
0.61667	-233
0.62500	-233
0.63333	-234
0.64167	-236
0.65000	-236
0.65833	-237
0.66667	-237
0.67500	-237
0.68333	-237
0.69167	-237
0.70000	-236
0.70833	-235
0.71667	-233
0.72500	-233
0.73333	-233
0.74167	-232
0.75000	-232
0.75833	-233
0.76667	-234
0.77500	-235
0.78333	-236
0.79167	-238
0.80000	-240
0.80833	-242
0.81667	-243
0.82500	-244
0.83333	-245
0.84167	-245
0.85000	-246
0.85833	-247
0.86667	-249
0.87500	-250
0.88333	-251
0.89167	-251
0.90000	-252
0.90833	-253
0.91667	-253
0.92500	-255
0.93333	-257
0.94167	-257
0.95000	-256
0.95833	-256
0.96667	-254
0.97500	-253
0.98333	-251
0.99167	-248
1.00000	-246
1.00833	-245
1.01667	-243
1.02500	-243
1.03333	-244
1.04167	-244
1.05000	-244
1.05833	-240
1.06667	-231
1.07500	-217
1.08333	-200
1.09167	-182
1.10000	-164
1.10833	-148
1.11667	-134
1.12500	-123
1.13333	-114
1.14167	-110
1.15000	-109
1.15833	-112
1.16667	-118
1.17500	-125
1.18333	-132
1.19167	-137
1.20000	-141
1.20833	-142
1.21667	-136
1.22500	-118
1.23333	-78
1.24167	-9
1.25000	91
1.25833	211
1.26667	332
1.27500	432
1.28333	494
1.29167	507
1.30000	477
1.30833	414
1.31667	333
1.32500	250
1.33333	173
1.34167	108
1.35000	55
1.35833	12
1.36667	-22
1.37500	-52
1.38333	-77
1.39167	-99
1.40000	-117
1.40833	-132
1.41667	-143
1.42500	-150
1.43333	-155
1.44167	-159
1.45000	-162
1.45833	-167
1.46667	-175
1.47500	-184
1.48333	-192
1.49167	-200
1.50000	-208
1.50833	-216
1.51667	-221
1.52500	-225
1.53333	-229
1.54167	-233
1.55000	-236
1.55833	-238
1.56667	-241
1.57500	-243
1.58333	-244
1.59167	-245
1.60000	-246
1.60833	-246
1.61667	-246
1.62500	-247
1.63333	-248
1.64167	-250
1.65000	-251
1.65833	-252
1.66667	-254
1.67500	-256
1.68333	-259
1.69167	-261
1.70000	-261
1.70833	-262
1.71667	-264
1.72500	-265
1.73333	-266
1.74167	-266
1.75000	-267
1.75833	-269
1.76667	-270
1.77500	-269
1.78333	-269
1.79167	-269
1.80000	-268
1.80833	-266
1.81667	-264
1.82500	-262
1.83333	-259
1.84167	-256
1.85000	-253
1.85833	-251
1.86667	-249
1.87500	-247
1.88333	-245
1.89167	-244
1.90000	-243
1.90833	-244
1.91667	-245
1.92500	-247
1.93333	-249
1.94167	-252
1.95000	-254
1.95833	-257
1.96667	-261
1.97500	-265
1.98333	-268
1.99167	-271
2.00000	-272
2.00833	-273
2.01667	-274
2.02500	-275
2.03333	-275
2.04167	-275
2.05000	-276
2.05833	-277
2.06667	-278
2.07500	-279
2.08333	-281
2.09167	-282
2.10000	-283
2.10833	-283
2.11667	-284
2.12500	-285
2.13333	-286
2.14167	-286
2.15000	-286
2.15833	-285
2.16667	-286
2.17500	-286
2.18333	-286
2.19167	-286
2.20000	-286
2.20833	-286
2.21667	-285
2.22500	-285
2.23333	-285
2.24167	-285
2.25000	-285
2.25833	-286
2.26667	-286
2.27500	-285
2.28333	-284
2.29167	-283
2.30000	-282
2.30833	-280
2.31667	-277
2.32500	-274
2.33333	-271
2.34167	-268
2.35000	-265
2.35833	-264
2.36667	-263
2.37500	-264
2.38333	-265
2.39167	-266
2.40000	-269
2.40833	-272
2.41667	-275
2.42500	-276
2.43333	-276
2.44167	-278
2.45000	-280
2.45833	-281
2.46667	-281
2.47500	-281
2.48333	-281
2.49167	-281
2.50000	-282
2.50833	-281
2.51667	-280
2.52500	-281
2.53333	-282
2.54167	-282
2.55000	-281
2.55833	-280
2.56667	-279
2.57500	-279
2.58333	-279
2.59167	-279
2.60000	-279
2.60833	-278
2.61667	-277
2.62500	-276
2.63333	-276
2.64167	-276
2.65000	-274
2.65833	-270
2.66667	-265
2.67500	-257
2.68333	-247
2.69167	-235
2.70000	-220
2.70833	-204
2.71667	-186
2.72500	-169
2.73333	-153
2.74167	-138
2.75000	-125
2.75833	-114
2.76667	-108
2.77500	-105
2.78333	-105
2.79167	-109
2.80000	-117
2.80833	-129
2.81667	-142
2.82500	-157
2.83333	-171
2.84167	-185
2.85000	-198
2.85833	-210
2.86667	-220
2.87500	-229
2.88333	-237
2.89167	-243
2.90000	-246
2.90833	-248
2.91667	-249
2.92500	-248
2.93333	-248
2.94167	-248
2.95000	-246
2.95833	-243
2.96667	-240
2.97500	-237
2.98333	-234
2.99167	-232
3.00000	-230
3.00833	-228
3.01667	-227
3.02500	-226
3.03333	-226
3.04167	-226
3.05000	-226
3.05833	-226
3.06667	-227
3.07500	-228
3.08333	-229
3.09167	-231
3.10000	-231
3.10833	-231
3.11667	-231
3.12500	-231
3.13333	-231
3.14167	-230
3.15000	-229
3.15833	-230
3.16667	-231
3.17500	-232
3.18333	-233
3.19167	-235
3.20000	-236
3.20833	-237
3.21667	-237
3.22500	-236
3.23333	-235
3.24167	-235
3.25000	-236
3.25833	-235
3.26667	-234
3.27500	-234
3.28333	-233
3.29167	-233
3.30000	-231
3.30833	-230
3.31667	-229
3.32500	-229
3.33333	-228
3.34167	-227
3.35000	-226
3.35833	-225
3.36667	-225
3.37500	-224
3.38333	-222
3.39167	-220
3.40000	-219
3.40833	-219
3.41667	-219
3.42500	-218
3.43333	-217
3.44167	-216
3.45000	-215
3.45833	-213
3.46667	-213
3.47500	-212
3.48333	-209
3.49167	-208
3.50000	-206
3.50833	-205
3.51667	-205
3.52500	-204
3.53333	-204
3.54167	-203
3.55000	-202
3.55833	-201
3.56667	-200
3.57500	-199
3.58333	-198
3.59167	-197
3.60000	-197
3.60833	-197
3.61667	-195
3.62500	-194
3.63333	-193
3.64167	-192
3.65000	-191
3.65833	-191
3.66667	-191
3.67500	-191
3.68333	-190
3.69167	-188
3.70000	-188
3.70833	-187
3.71667	-185
3.72500	-184
3.73333	-185
3.74167	-186
3.75000	-186
3.75833	-185
3.76667	-185
3.77500	-183
3.78333	-181
3.79167	-181
3.80000	-181
3.80833	-181
3.81667	-182
3.82500	-182
3.83333	-182
3.84167	-181
3.85000	-180
3.85833	-180
3.86667	-179
3.87500	-180
3.88333	-181
3.89167	-181
3.90000	-181
3.90833	-182
3.91667	-181
3.92500	-182
3.93333	-180
3.94167	-179
3.95000	-179
3.95833	-180
3.96667	-181
3.97500	-182
3.98333	-183
3.99167	-183
4.00000	-184
4.00833	-184
4.01667	-184
4.02500	-183
4.03333	-183
4.04167	-184
4.05000	-186
4.05833	-187
4.06667	-188
4.07500	-189
4.08333	-190
4.09167	-191
4.10000	-192
4.10833	-191
4.11667	-191
4.12500	-192
4.13333	-194
4.14167	-196
4.15000	-198
4.15833	-199
4.16667	-201
4.17500	-202
4.18333	-203
4.19167	-205
4.20000	-207
4.20833	-207
4.21667	-207
4.22500	-207
4.23333	-209
4.24167	-211
4.25000	-213
4.25833	-215
4.26667	-216
4.27500	-218
4.28333	-220
4.29167	-222
4.30000	-224
4.30833	-226
4.31667	-226
4.32500	-227
4.33333	-228
4.34167	-230
4.35000	-232
4.35833	-235
4.36667	-237
4.37500	-238
4.38333	-239
4.39167	-240
4.40000	-241
4.40833	-242
4.41667	-239
4.42500	-232
4.43333	-221
4.44167	-196
4.45000	-143
4.45833	-37
4.46667	167
4.47500	546
4.48333	1225
4.49167	2398
4.50000	4349
4.50833	7475
4.51667	12290
4.52500	19421
4.53333	29563
4.54167	43412
4.55000	61561
4.55833	84382
4.56667	111915
4.57500	143792
4.58333	179201
4.59167	216910
4.60000	255373
4.60833	292871
4.61667	327679
4.62500	358227
4.63333	383244
4.64167	401851
4.65000	413602
4.65833	418475
4.66667	416821
4.67500	409283
4.68333	396707
4.69167	380044
4.70000	360275
4.70833	338340
4.71667	315087
4.72500	291250
4.73333	267436
4.74167	244126
4.75000	221679
4.75833	200352
4.76667	180313
4.77500	161658
4.78333	144429
4.79167	128621
4.80000	114198
4.80833	101105
4.81667	89270
4.82500	78616
4.83333	69060
4.84167	60518
4.85000	52907
4.85833	46149
4.86667	40168
4.87500	34893
4.88333	30255
4.89167	26187
4.90000	22631
4.90833	19533
4.91667	16841
4.92500	14510
4.93333	12497
4.94167	10763
4.95000	9273
4.95833	7994
4.96667	6904
4.97500	5974
4.98333	5181
4.99167	4505
5.00000	3929
5.00833	3437
5.01667	3020
5.02500	2665
5.03333	2363
5.04167	2105
5.05000	1882
5.05833	1690
5.06667	1524
5.07500	1379
5.08333	1252
5.09167	1139
5.10000	1039
5.10833	951
5.11667	875
5.12500	807
5.13333	746
5.14167	690
5.15000	639
5.15833	592
5.16667	548
5.17500	507
5.18333	469
5.19167	435
5.20000	403
5.20833	373
5.21667	344
5.22500	318
5.23333	295
5.24167	273
5.25000	253
5.25833	234
5.26667	214
5.27500	196
5.28333	178
5.29167	162
5.30000	146
5.30833	131
5.31667	116
5.32500	103
5.33333	91
5.34167	78
5.35000	67
5.35833	57
5.36667	49
5.37500	40
5.38333	32
5.39167	23
5.40000	14
5.40833	5
5.41667	-2
5.42500	-8
5.43333	-15
5.44167	-22
5.45000	-29
5.45833	-35
5.46667	-41
5.47500	-46
5.48333	-52
5.49167	-57
5.50000	-62
5.50833	-68
5.51667	-73
5.52500	-79
5.53333	-84
5.54167	-88
5.55000	-92
5.55833	-95
5.56667	-99
5.57500	-103
5.58333	-106
5.59167	-110
5.60000	-113
5.60833	-115
5.61667	-118
5.62500	-121
5.63333	-124
5.64167	-127
5.65000	-130
5.65833	-132
5.66667	-135
5.67500	-138
5.68333	-140
5.69167	-143
5.70000	-145
5.70833	-147
5.71667	-148
5.72500	-150
5.73333	-152
5.74167	-153
5.75000	-154
5.75833	-155
5.76667	-156
5.77500	-157
5.78333	-158
5.79167	-159
5.80000	-161
5.80833	-161
5.81667	-159
5.82500	-159
5.83333	-160
5.84167	-161
5.85000	-163
5.85833	-164
5.86667	-165
5.87500	-165
5.88333	-166
5.89167	-167
5.90000	-166
5.90833	-165
5.91667	-165
5.92500	-164
5.93333	-164
5.94167	-164
5.95000	-164
5.95833	-164
5.96667	-162
5.97500	-160
5.98333	-158
5.99167	-157
6.00000	-156

[LC Status Trace(Pump A Pressure)]
Interval(msec)	1000
# of Points	361
Start Time(min)	0.000
End Time(min)	6.000
Intensity Units	kgf/cm2
Intensity Multiplier	1
R.Time (min)	Intensity
0.00000	157.8
0.01667	157.8
0.03333	157.9
0.05000	158.0
0.06667	157.9
0.08333	158.2
0.10000	158.4
0.11667	158.5
0.13333	158.7
0.15000	158.5
0.16667	158.5
0.18333	158.7
0.20000	158.5
0.21667	158.7
0.23333	158.8
0.25000	158.8
0.26667	158.8
0.28333	158.9
0.30000	158.7
0.31667	158.7
0.33333	158.7
0.35000	158.5
0.36667	158.7
0.38333	158.5
0.40000	158.8
0.41667	158.8
0.43333	158.8
0.45000	158.9
0.46667	158.7
0.48333	158.8
0.50000	158.9
0.51667	158.9
0.53333	159.1
0.55000	158.8
0.56667	158.8
0.58333	159.1
0.60000	158.8
0.61667	158.9
0.63333	158.9
0.65000	158.9
0.66667	158.9
0.68333	158.9
0.70000	158.9
0.71667	159.1
0.73333	158.9
0.75000	159.1
0.76667	159.3
0.78333	158.9
0.80000	159.2
0.81667	159.2
0.83333	159.2
0.85000	159.2
0.86667	159.2
0.88333	158.9
0.90000	159.2
0.91667	159.1
0.93333	158.9
0.95000	158.9
0.96667	159.2
0.98333	158.9
1.00000	159.5
1.01667	159.2
1.03333	159.2
1.05000	159.2
1.06667	159.1
1.08333	159.2
1.10000	159.2
1.11667	159.2
1.13333	159.3
1.15000	159.1
1.16667	159.3
1.18333	159.2
1.20000	159.3
1.21667	159.3
1.23333	159.5
1.25000	159.5
1.26667	159.3
1.28333	159.3
1.30000	159.3
1.31667	159.3
1.33333	159.3
1.35000	159.3
1.36667	159.2
1.38333	159.2
1.40000	159.5
1.41667	159.3
1.43333	159.3
1.45000	159.3
1.46667	159.5
1.48333	159.5
1.50000	159.5
1.51667	159.2
1.53333	159.5
1.55000	159.3
1.56667	159.5
1.58333	159.5
1.60000	159.3
1.61667	159.3
1.63333	159.6
1.65000	159.2
1.66667	159.5
1.68333	159.2
1.70000	159.6
1.71667	159.6
1.73333	159.3
1.75000	159.5
1.76667	159.6
1.78333	159.6
1.80000	159.5
1.81667	159.6
1.83333	159.5
1.85000	159.5
1.86667	159.6
1.88333	159.3
1.90000	159.3
1.91667	159.6
1.93333	159.2
1.95000	159.2
1.96667	159.5
1.98333	159.3
2.00000	159.6
2.01667	159.3
2.03333	159.5
2.05000	159.1
2.06667	159.3
2.08333	159.3
2.10000	159.2
2.11667	159.2
2.13333	159.3
2.15000	159.2
2.16667	159.5
2.18333	159.2
2.20000	159.5
2.21667	159.5
2.23333	159.6
2.25000	159.3
2.26667	159.5
2.28333	159.3
2.30000	159.3
2.31667	159.6
2.33333	159.3
2.35000	159.5
2.36667	159.2
2.38333	159.5
2.40000	159.5
2.41667	159.2
2.43333	159.2
2.45000	159.3
2.46667	159.2
2.48333	159.2
2.50000	159.3
2.51667	159.2
2.53333	159.3
2.55000	159.2
2.56667	159.2
2.58333	159.3
2.60000	159.1
2.61667	159.3
2.63333	159.3
2.65000	159.3
2.66667	159.2
2.68333	159.3
2.70000	159.3
2.71667	159.3
2.73333	159.3
2.75000	159.5
2.76667	159.3
2.78333	159.3
2.80000	159.3
2.81667	159.3
2.83333	159.3
2.85000	159.2
2.86667	159.3
2.88333	159.2
2.90000	159.2
2.91667	159.3
2.93333	159.2
2.95000	159.2
2.96667	159.3
2.98333	159.1
3.00000	159.3
3.01667	159.1
3.03333	159.2
3.05000	159.1
3.06667	159.2
3.08333	159.2
3.10000	159.1
3.11667	159.2
3.13333	159.1
3.15000	159.2
3.16667	159.2
3.18333	159.2
3.20000	159.1
3.21667	159.1
3.23333	158.8
3.25000	159.1
3.26667	159.1
3.28333	158.8
3.30000	158.9
3.31667	159.1
3.33333	158.9
3.35000	158.9
3.36667	158.9
3.38333	158.9
3.40000	158.9
3.41667	158.8
3.43333	159.1
3.45000	159.1
3.46667	159.1
3.48333	158.9
3.50000	159.1
3.51667	159.1
3.53333	159.1
3.55000	158.9
3.56667	158.8
3.58333	158.9
3.60000	158.8
3.61667	158.8
3.63333	159.1
3.65000	158.8
3.66667	158.8
3.68333	159.2
3.70000	158.8
3.71667	158.9
3.73333	158.5
3.75000	158.8
3.76667	158.9
3.78333	158.9
3.80000	158.9
3.81667	158.7
3.83333	158.9
3.85000	158.9
3.86667	158.8
3.88333	159.1
3.90000	158.7
3.91667	158.8
3.93333	158.9
3.95000	158.7
3.96667	158.7
3.98333	158.8
4.00000	158.9
4.01667	158.8
4.03333	158.7
4.05000	158.9
4.06667	158.9
4.08333	158.9
4.10000	158.8
4.11667	158.8
4.13333	158.8
4.15000	158.8
4.16667	158.9
4.18333	159.1
4.20000	158.8
4.21667	158.8
4.23333	158.8
4.25000	158.9
4.26667	158.9
4.28333	158.5
4.30000	158.7
4.31667	158.3
4.33333	158.7
4.35000	158.5
4.36667	158.7
4.38333	158.5
4.40000	158.7
4.41667	158.7
4.43333	158.8
4.45000	158.7
4.46667	158.7
4.48333	158.5
4.50000	158.5
4.51667	158.7
4.53333	158.9
4.55000	158.7
4.56667	158.7
4.58333	158.7
4.60000	158.5
4.61667	158.8
4.63333	158.7
4.65000	158.7
4.66667	158.7
4.68333	158.5
4.70000	158.7
4.71667	158.7
4.73333	158.7
4.75000	158.7
4.76667	158.5
4.78333	158.4
4.80000	158.4
4.81667	158.5
4.83333	158.8
4.85000	158.8
4.86667	158.8
4.88333	158.8
4.90000	158.8
4.91667	158.4
4.93333	158.7
4.95000	159.1
4.96667	158.7
4.98333	158.7
5.00000	158.7
5.01667	158.7
5.03333	158.8
5.05000	158.5
5.06667	158.7
5.08333	158.8
5.10000	158.7
5.11667	158.8
5.13333	158.5
5.15000	158.8
5.16667	158.8
5.18333	158.8
5.20000	158.8
5.21667	158.9
5.23333	158.9
5.25000	158.8
5.26667	158.9
5.28333	158.9
5.30000	158.8
5.31667	158.9
5.33333	158.9
5.35000	158.9
5.36667	158.8
5.38333	158.9
5.40000	159.1
5.41667	158.9
5.43333	158.9
5.45000	159.1
5.46667	158.9
5.48333	158.9
5.50000	158.5
5.51667	158.9
5.53333	159.1
5.55000	158.8
5.56667	158.8
5.58333	159.1
5.60000	158.9
5.61667	159.1
5.63333	158.9
5.65000	159.3
5.66667	159.1
5.68333	158.8
5.70000	159.1
5.71667	159.1
5.73333	159.1
5.75000	158.9
5.76667	159.2
5.78333	159.1
5.80000	159.1
5.81667	158.9
5.83333	159.2
5.85000	159.1
5.86667	159.2
5.88333	159.1
5.90000	159.2
5.91667	159.1
5.93333	159.1
5.95000	159.2
5.96667	159.2
5.98333	159.2
6.00000	158.8

[LC Status Trace(UV Cell Temp.)]
Interval(msec)	1000
# of Points	361
Start Time(min)	0.000
End Time(min)	6.000
Intensity Units	C
Intensity Multiplier	1
R.Time (min)	Intensity
0.00000	39.96
0.01667	39.96
0.03333	39.96
0.05000	39.91
0.06667	39.93
0.08333	39.96
0.10000	39.93
0.11667	39.93
0.13333	39.91
0.15000	39.99
0.16667	40.00
0.18333	39.95
0.20000	39.97
0.21667	39.98
0.23333	39.98
0.25000	39.99
0.26667	39.98
0.28333	39.96
0.30000	39.95
0.31667	39.93
0.33333	39.95
0.35000	39.95
0.36667	39.98
0.38333	39.98
0.40000	40.00
0.41667	39.99
0.43333	39.99
0.45000	39.99
0.46667	39.99
0.48333	40.00
0.50000	40.00
0.51667	40.00
0.53333	40.00
0.55000	40.00
0.56667	40.00
0.58333	40.03
0.60000	40.00
0.61667	40.00
0.63333	40.00
0.65000	40.00
0.66667	40.00
0.68333	40.00
0.70000	40.00
0.71667	40.00
0.73333	40.03
0.75000	40.03
0.76667	39.98
0.78333	39.89
0.80000	39.97
0.81667	40.00
0.83333	40.00
0.85000	39.99
0.86667	39.98
0.88333	39.99
0.90000	40.00
0.91667	40.02
0.93333	40.00
0.95000	40.02
0.96667	40.02
0.98333	40.03
1.00000	40.00
1.01667	39.93
1.03333	39.93
1.05000	39.93
1.06667	39.93
1.08333	39.95
1.10000	39.98
1.11667	39.99
1.13333	40.00
1.15000	40.00
1.16667	39.99
1.18333	40.00
1.20000	40.02
1.21667	39.99
1.23333	40.00
1.25000	40.00
1.26667	40.00
1.28333	40.02
1.30000	40.00
1.31667	40.00
1.33333	39.99
1.35000	39.99
1.36667	40.00
1.38333	39.99
1.40000	40.00
1.41667	39.99
1.43333	40.00
1.45000	40.00
1.46667	40.00
1.48333	40.02
1.50000	39.99
1.51667	40.00
1.53333	39.99
1.55000	40.00
1.56667	40.05
1.58333	40.05
1.60000	40.02
1.61667	40.00
1.63333	40.00
1.65000	39.99
1.66667	40.02
1.68333	40.03
1.70000	40.00
1.71667	39.99
1.73333	39.98
1.75000	39.96
1.76667	39.98
1.78333	40.00
1.80000	40.00
1.81667	40.07
1.83333	40.05
1.85000	40.00
1.86667	39.99
1.88333	39.98
1.90000	39.96
1.91667	39.96
1.93333	40.00
1.95000	40.00
1.96667	39.99
1.98333	40.00
2.00000	40.00
2.01667	40.00
2.03333	40.00
2.05000	40.00
2.06667	40.00
2.08333	40.00
2.10000	40.00
2.11667	40.00
2.13333	39.99
2.15000	39.98
2.16667	40.00
2.18333	40.00
2.20000	40.00
2.21667	40.00
2.23333	39.99
2.25000	40.00
2.26667	40.02
2.28333	39.99
2.30000	39.99
2.31667	40.00
2.33333	40.00
2.35000	40.00
2.36667	39.99
2.38333	39.99
2.40000	40.00
2.41667	39.98
2.43333	39.93
2.45000	39.96
2.46667	40.00
2.48333	40.00
2.50000	40.02
2.51667	40.00
2.53333	40.00
2.55000	40.00
2.56667	39.99
2.58333	39.99
2.60000	40.00
2.61667	40.02
2.63333	40.02
2.65000	40.00
2.66667	40.00
2.68333	39.99
2.70000	40.00
2.71667	40.07
2.73333	40.03
2.75000	40.00
2.76667	39.96
2.78333	39.96
2.80000	39.97
2.81667	39.99
2.83333	40.00
2.85000	40.02
2.86667	40.02
2.88333	40.02
2.90000	40.00
2.91667	40.00
2.93333	40.00
2.95000	40.00
2.96667	39.99
2.98333	40.03
3.00000	40.02
3.01667	40.03
3.03333	40.05
3.05000	40.02
3.06667	40.00
3.08333	40.05
3.10000	40.02
3.11667	40.00
3.13333	40.00
3.15000	40.00
3.16667	40.03
3.18333	40.02
3.20000	40.00
3.21667	40.03
3.23333	40.05
3.25000	39.98
3.26667	39.97
3.28333	39.95
3.30000	39.95
3.31667	39.93
3.33333	39.96
3.35000	40.00
3.36667	40.00
3.38333	40.00
3.40000	39.99
3.41667	40.00
3.43333	40.00
3.45000	40.00
3.46667	40.00
3.48333	40.03
3.50000	40.00
3.51667	39.99
3.53333	39.96
3.55000	39.99
3.56667	39.99
3.58333	39.99
3.60000	40.00
3.61667	40.02
3.63333	40.00
3.65000	40.00
3.66667	40.00
3.68333	39.99
3.70000	39.98
3.71667	39.99
3.73333	39.96
3.75000	39.93
3.76667	39.93
3.78333	40.00
3.80000	40.00
3.81667	40.00
3.83333	40.00
3.85000	39.99
3.86667	40.00
3.88333	40.00
3.90000	40.03
3.91667	40.00
3.93333	40.00
3.95000	39.96
3.96667	39.98
3.98333	39.97
4.00000	40.00
4.01667	39.98
4.03333	40.00
4.05000	40.00
4.06667	40.00
4.08333	40.00
4.10000	39.99
4.11667	40.00
4.13333	40.00
4.15000	40.05
4.16667	40.00
4.18333	39.99
4.20000	39.98
4.21667	40.00
4.23333	40.00
4.25000	40.00
4.26667	40.00
4.28333	40.02
4.30000	40.02
4.31667	39.97
4.33333	39.95
4.35000	39.91
4.36667	39.96
4.38333	39.97
4.40000	40.00
4.41667	40.00
4.43333	40.00
4.45000	40.03
4.46667	40.05
4.48333	40.03
4.50000	39.99
4.51667	39.99
4.53333	40.00
4.55000	40.00
4.56667	40.00
4.58333	39.99
4.60000	39.99
4.61667	39.99
4.63333	40.03
4.65000	40.03
4.66667	40.02
4.68333	40.00
4.70000	40.00
4.71667	40.02
4.73333	40.03
4.75000	40.03
4.76667	40.00
4.78333	40.00
4.80000	40.00
4.81667	39.99
4.83333	40.00
4.85000	39.99
4.86667	39.99
4.88333	40.00
4.90000	40.00
4.91667	40.00
4.93333	40.02
4.95000	40.00
4.96667	39.98
4.98333	40.00
5.00000	40.00
5.01667	40.00
5.03333	40.00
5.05000	40.00
5.06667	40.00
5.08333	40.02
5.10000	40.02
5.11667	39.99
5.13333	40.00
5.15000	39.98
5.16667	39.96
5.18333	39.97
5.20000	39.96
5.21667	39.98
5.23333	40.00
5.25000	40.00
5.26667	40.00
5.28333	40.00
5.30000	40.03
5.31667	40.02
5.33333	40.03
5.35000	40.05
5.36667	40.03
5.38333	40.02
5.40000	40.00
5.41667	40.00
5.43333	39.99
5.45000	40.00
5.46667	40.00
5.48333	40.03
5.50000	40.03
5.51667	40.00
5.53333	39.99
5.55000	40.00
5.56667	40.00
5.58333	39.99
5.60000	40.05
5.61667	40.05
5.63333	40.00
5.65000	40.00
5.66667	40.02
5.68333	40.03
5.70000	40.00
5.71667	39.96
5.73333	39.98
5.75000	39.93
5.76667	39.93
5.78333	40.00
5.80000	40.00
5.81667	40.00
5.83333	40.00
5.85000	40.00
5.86667	40.00
5.88333	40.00
5.90000	39.99
5.91667	39.99
5.93333	39.99
5.95000	39.96
5.96667	39.93
5.98333	39.93
6.00000	39.96

[Fraction Collection Report]
# of Fractions	0

