[Header]
Application Name	LCsolution
Version	1.25
Data File Name	C:\LabSolutions\Data\Caffeine\20161014\std-0.lcd
Output Date	2019/1/7
Output Time	下午 06:31:14

[File Information]
Type	Data File
Generated	2016/10/14 下午 10:56:29
Generated by	Admin
Modified	2017/6/5 下午 01:04:57
Modified by	Admin

[Sample Information]
Operator Name	Admin
Acquired	2016/10/14 下午 10:56:41
Sample Type	1:Standard
Level	1
Sample Name	咖啡因-樣品20161014
Sample ID	
ISTD Amount 1	1
ISTD Amount 2	1
ISTD Amount 3	1
ISTD Amount 4	1
ISTD Amount 5	1
ISTD Amount 6	1
ISTD Amount 7	1
ISTD Amount 8	1
ISTD Amount 9	1
ISTD Amount 10	1
ISTD Amount 11	1
ISTD Amount 12	1
ISTD Amount 13	1
ISTD Amount 14	1
ISTD Amount 15	1
ISTD Amount 16	1
ISTD Amount 17	1
ISTD Amount 18	1
ISTD Amount 19	1
ISTD Amount 20	1
ISTD Amount 21	1
ISTD Amount 22	1
ISTD Amount 23	1
ISTD Amount 24	1
ISTD Amount 25	1
ISTD Amount 26	1
ISTD Amount 27	1
ISTD Amount 28	1
ISTD Amount 29	1
ISTD Amount 30	1
ISTD Amount 31	1
ISTD Amount 32	1
Sample Amount	1
Dilution Factor	1
Vial#	
Injection Volume	10

[Original Files]
Data File	C:\LabSolutions\Data\Caffeine\20161014\std-0.lcd
Method File	C:\LabSolutions\Method\Caffeine咖啡因\NEW-Caffeine 280nm  SB-C18 5um 4.6x250mm -10ul-1.0mL  A(40)-H2O  D(60)-MeOH.lcm
Batch File	
Report Format File	C:\LabSolutions\LCsolution\System\Default.lcr
Tuning File	

[File Description]


[Configuration]
# of Detectors	1
Detector ID	Detector A
Detector Name	Detector A
# of Channels	1

[Peak Table(Detector A-Ch1)]
# of Peaks	3
Peak#	R.Time	I.Time	F.Time	Area	Height	A/H	Conc.	Mark	ID#	Name	k'	Plate #	Plate Ht.	Tailing	Resolution	Sep.Factor	Conc. %	Norm Conc.
1	0.259	0.017	1.900	6400493	192837	33.1910	0.0000	S  			0.000	2	104544.375	2.980	0.000	0.000	0.0000	0.0000
2	1.582	1.433	1.900	58953	3512	16.7860	0.0000	T  			5.102	252	993.842	1.585	2.473	0.000	0.0000	0.0000
3	1.977	1.900	4.375	639321	21874	29.2280	0.0000	 V 			6.625	1281	195.120	0.000	1.274	1.299	0.0000	0.0000

[Peak Table(PDA-Ch1)]
# of Peaks	0

[Compound Results(Detector A)]
# of IDs	1
ID#	Name	R.Time	Area	Height	Conc.	Curve	3rd	2nd	1st	Constant	Conc. %	Norm Conc.
1	咖啡因	0.000	0	0	0.0000	Linear	0.0	0.0	0.0	0.0	0.0000	0.0000

[Compound Results(PDA)]
# of IDs	0

[Group Results(Detector A)]
# of Groups	0

[Group Results(PDA)]
# of Groups	0

[LC Chromatogram(Detector A-Ch1)]
Interval(msec)	500
# of Points	721
Start Time(min)	0.000
End Time(min)	6.000
Intensity Units	mV
Intensity Multiplier	0.001
Wavelength(nm)	280
R.Time (min)	Intensity
0.00000	-396
0.00833	-396
0.01667	2636
0.02500	9736
0.03333	19990
0.04167	31614
0.05000	43897
0.05833	57142
0.06667	71327
0.07500	85981
0.08333	100498
0.09167	114291
0.10000	126914
0.10833	138089
0.11667	147702
0.12500	155783
0.13333	162481
0.14167	168006
0.15000	172582
0.15833	176416
0.16667	179674
0.17500	182479
0.18333	184914
0.19167	187036
0.20000	188884
0.20833	190472
0.21667	191812
0.22500	192918
0.23333	193795
0.24167	194465
0.25000	194910
0.25833	195139
0.26667	195162
0.27500	194978
0.28333	194587
0.29167	193986
0.30000	193166
0.30833	192122
0.31667	190841
0.32500	189324
0.33333	187572
0.34167	185559
0.35000	183277
0.35833	180737
0.36667	177945
0.37500	174912
0.38333	171643
0.39167	168140
0.40000	164421
0.40833	160505
0.41667	156398
0.42500	152129
0.43333	147723
0.44167	143201
0.45000	138589
0.45833	133913
0.46667	129214
0.47500	124517
0.48333	119849
0.49167	115241
0.50000	110711
0.50833	106286
0.51667	101993
0.52500	97846
0.53333	93863
0.54167	90051
0.55000	86417
0.55833	82969
0.56667	79709
0.57500	76634
0.58333	73742
0.59167	71029
0.60000	68487
0.60833	66112
0.61667	63893
0.62500	61832
0.63333	59910
0.64167	58116
0.65000	56445
0.65833	54886
0.66667	53422
0.67500	52046
0.68333	50754
0.69167	49542
0.70000	48403
0.70833	47327
0.71667	46309
0.72500	45348
0.73333	44434
0.74167	43572
0.75000	42759
0.75833	41983
0.76667	41245
0.77500	40544
0.78333	39877
0.79167	39242
0.80000	38637
0.80833	38058
0.81667	37496
0.82500	36948
0.83333	36405
0.84167	35856
0.85000	35294
0.85833	34712
0.86667	34096
0.87500	33441
0.88333	32752
0.89167	32026
0.90000	31268
0.90833	30488
0.91667	29698
0.92500	28913
0.93333	28131
0.94167	27363
0.95000	26621
0.95833	25910
0.96667	25233
0.97500	24598
0.98333	24005
0.99167	23454
1.00000	22944
1.00833	22477
1.01667	22057
1.02500	21660
1.03333	21278
1.04167	20919
1.05000	20583
1.05833	20267
1.06667	19970
1.07500	19689
1.08333	19422
1.09167	19169
1.10000	18927
1.10833	18695
1.11667	18472
1.12500	18256
1.13333	18046
1.14167	17844
1.15000	17650
1.15833	17460
1.16667	17273
1.17500	17091
1.18333	16914
1.19167	16743
1.20000	16575
1.20833	16410
1.21667	16249
1.22500	16092
1.23333	15940
1.24167	15796
1.25000	15654
1.25833	15514
1.26667	15377
1.27500	15243
1.28333	15112
1.29167	14988
1.30000	14868
1.30833	14753
1.31667	14641
1.32500	14530
1.33333	14423
1.34167	14324
1.35000	14237
1.35833	14144
1.36667	13996
1.37500	13721
1.38333	13252
1.39167	12564
1.40000	11689
1.40833	10736
1.41667	9900
1.42500	9386
1.43333	9230
1.44167	9307
1.45000	9492
1.45833	9761
1.46667	10142
1.47500	10618
1.48333	11101
1.49167	11508
1.50000	11790
1.50833	11956
1.51667	12044
1.52500	12095
1.53333	12143
1.54167	12201
1.55000	12268
1.55833	12343
1.56667	12408
1.57500	12454
1.58333	12474
1.59167	12470
1.60000	12440
1.60833	12386
1.61667	12320
1.62500	12263
1.63333	12231
1.64167	12229
1.65000	12244
1.65833	12257
1.66667	12244
1.67500	12189
1.68333	12086
1.69167	11939
1.70000	11756
1.70833	11556
1.71667	11351
1.72500	11149
1.73333	10958
1.74167	10779
1.75000	10609
1.75833	10446
1.76667	10290
1.77500	10138
1.78333	9993
1.79167	9852
1.80000	9715
1.80833	9582
1.81667	9451
1.82500	9323
1.83333	9199
1.84167	9079
1.85000	8965
1.85833	8858
1.86667	8750
1.87500	8644
1.88333	8540
1.89167	8447
1.90000	8388
1.90833	8432
1.91667	8719
1.92500	9471
1.93333	10896
1.94167	13045
1.95000	15699
1.95833	18390
1.96667	20566
1.97500	21817
1.98333	22000
1.99167	21235
2.00000	19804
2.00833	18027
2.01667	16176
2.02500	14440
2.03333	12922
2.04167	11657
2.05000	10643
2.05833	9853
2.06667	9250
2.07500	8794
2.08333	8451
2.09167	8195
2.10000	8002
2.10833	7854
2.11667	7732
2.12500	7625
2.13333	7531
2.14167	7446
2.15000	7366
2.15833	7294
2.16667	7229
2.17500	7165
2.18333	7104
2.19167	7047
2.20000	6994
2.20833	6947
2.21667	6898
2.22500	6851
2.23333	6806
2.24167	6764
2.25000	6724
2.25833	6685
2.26667	6649
2.27500	6615
2.28333	6582
2.29167	6548
2.30000	6513
2.30833	6476
2.31667	6438
2.32500	6399
2.33333	6362
2.34167	6326
2.35000	6291
2.35833	6256
2.36667	6222
2.37500	6191
2.38333	6159
2.39167	6127
2.40000	6098
2.40833	6067
2.41667	6037
2.42500	6007
2.43333	5978
2.44167	5949
2.45000	5919
2.45833	5890
2.46667	5859
2.47500	5830
2.48333	5801
2.49167	5773
2.50000	5745
2.50833	5716
2.51667	5687
2.52500	5658
2.53333	5628
2.54167	5599
2.55000	5574
2.55833	5546
2.56667	5515
2.57500	5483
2.58333	5453
2.59167	5424
2.60000	5396
2.60833	5369
2.61667	5341
2.62500	5314
2.63333	5287
2.64167	5260
2.65000	5234
2.65833	5207
2.66667	5180
2.67500	5156
2.68333	5132
2.69167	5108
2.70000	5083
2.70833	5059
2.71667	5033
2.72500	5005
2.73333	4979
2.74167	4952
2.75000	4923
2.75833	4894
2.76667	4866
2.77500	4838
2.78333	4810
2.79167	4783
2.80000	4753
2.80833	4723
2.81667	4695
2.82500	4667
2.83333	4632
2.84167	4597
2.85000	4561
2.85833	4524
2.86667	4489
2.87500	4453
2.88333	4416
2.89167	4378
2.90000	4340
2.90833	4300
2.91667	4260
2.92500	4220
2.93333	4179
2.94167	4137
2.95000	4094
2.95833	4051
2.96667	4006
2.97500	3960
2.98333	3913
2.99167	3867
3.00000	3820
3.00833	3770
3.01667	3719
3.02500	3666
3.03333	3613
3.04167	3560
3.05000	3505
3.05833	3447
3.06667	3388
3.07500	3328
3.08333	3269
3.09167	3210
3.10000	3150
3.10833	3090
3.11667	3030
3.12500	2969
3.13333	2906
3.14167	2842
3.15000	2777
3.15833	2712
3.16667	2647
3.17500	2583
3.18333	2520
3.19167	2456
3.20000	2392
3.20833	2328
3.21667	2264
3.22500	2200
3.23333	2136
3.24167	2072
3.25000	2008
3.25833	1943
3.26667	1878
3.27500	1815
3.28333	1752
3.29167	1688
3.30000	1624
3.30833	1562
3.31667	1500
3.32500	1439
3.33333	1379
3.34167	1324
3.35000	1266
3.35833	1208
3.36667	1150
3.37500	1091
3.38333	1034
3.39167	977
3.40000	921
3.40833	866
3.41667	812
3.42500	757
3.43333	702
3.44167	648
3.45000	594
3.45833	540
3.46667	489
3.47500	437
3.48333	389
3.49167	339
3.50000	286
3.50833	236
3.51667	189
3.52500	137
3.53333	85
3.54167	33
3.55000	-17
3.55833	-65
3.56667	-113
3.57500	-162
3.58333	-209
3.59167	-257
3.60000	-305
3.60833	-351
3.61667	-396
3.62500	-441
3.63333	-486
3.64167	-531
3.65000	-573
3.65833	-614
3.66667	-657
3.67500	-699
3.68333	-740
3.69167	-779
3.70000	-820
3.70833	-862
3.71667	-904
3.72500	-944
3.73333	-983
3.74167	-1024
3.75000	-1064
3.75833	-1103
3.76667	-1142
3.77500	-1180
3.78333	-1218
3.79167	-1257
3.80000	-1295
3.80833	-1332
3.81667	-1367
3.82500	-1404
3.83333	-1441
3.84167	-1477
3.85000	-1513
3.85833	-1548
3.86667	-1582
3.87500	-1616
3.88333	-1650
3.89167	-1682
3.90000	-1711
3.90833	-1742
3.91667	-1776
3.92500	-1811
3.93333	-1844
3.94167	-1877
3.95000	-1906
3.95833	-1929
3.96667	-1958
3.97500	-1990
3.98333	-2023
3.99167	-2054
4.00000	-2083
4.00833	-2112
4.01667	-2141
4.02500	-2168
4.03333	-2195
4.04167	-2222
4.05000	-2248
4.05833	-2274
4.06667	-2299
4.07500	-2322
4.08333	-2344
4.09167	-2367
4.10000	-2389
4.10833	-2412
4.11667	-2435
4.12500	-2457
4.13333	-2480
4.14167	-2502
4.15000	-2524
4.15833	-2545
4.16667	-2566
4.17500	-2584
4.18333	-2602
4.19167	-2620
4.20000	-2640
4.20833	-2660
4.21667	-2680
4.22500	-2699
4.23333	-2716
4.24167	-2733
4.25000	-2748
4.25833	-2763
4.26667	-2778
4.27500	-2794
4.28333	-2810
4.29167	-2823
4.30000	-2837
4.30833	-2850
4.31667	-2862
4.32500	-2874
4.33333	-2886
4.34167	-2898
4.35000	-2910
4.35833	-2922
4.36667	-2933
4.37500	-2944
4.38333	-2955
4.39167	-2964
4.40000	-2972
4.40833	-2981
4.41667	-2991
4.42500	-3001
4.43333	-3009
4.44167	-3017
4.45000	-3026
4.45833	-3035
4.46667	-3045
4.47500	-3053
4.48333	-3059
4.49167	-3066
4.50000	-3073
4.50833	-3082
4.51667	-3091
4.52500	-3099
4.53333	-3107
4.54167	-3114
4.55000	-3121
4.55833	-3128
4.56667	-3135
4.57500	-3142
4.58333	-3150
4.59167	-3157
4.60000	-3162
4.60833	-3167
4.61667	-3171
4.62500	-3176
4.63333	-3181
4.64167	-3186
4.65000	-3192
4.65833	-3200
4.66667	-3206
4.67500	-3211
4.68333	-3218
4.69167	-3224
4.70000	-3229
4.70833	-3235
4.71667	-3240
4.72500	-3247
4.73333	-3254
4.74167	-3258
4.75000	-3257
4.75833	-3261
4.76667	-3268
4.77500	-3274
4.78333	-3281
4.79167	-3287
4.80000	-3293
4.80833	-3297
4.81667	-3299
4.82500	-3303
4.83333	-3309
4.84167	-3314
4.85000	-3319
4.85833	-3322
4.86667	-3326
4.87500	-3329
4.88333	-3333
4.89167	-3337
4.90000	-3341
4.90833	-3345
4.91667	-3347
4.92500	-3349
4.93333	-3353
4.94167	-3355
4.95000	-3358
4.95833	-3362
4.96667	-3367
4.97500	-3371
4.98333	-3374
4.99167	-3378
5.00000	-3382
5.00833	-3385
5.01667	-3387
5.02500	-3390
5.03333	-3392
5.04167	-3395
5.05000	-3398
5.05833	-3400
5.06667	-3402
5.07500	-3404
5.08333	-3406
5.09167	-3407
5.10000	-3408
5.10833	-3409
5.11667	-3411
5.12500	-3413
5.13333	-3415
5.14167	-3417
5.15000	-3418
5.15833	-3418
5.16667	-3414
5.17500	-3408
5.18333	-3404
5.19167	-3407
5.20000	-3413
5.20833	-3418
5.21667	-3420
5.22500	-3422
5.23333	-3424
5.24167	-3426
5.25000	-3428
5.25833	-3430
5.26667	-3430
5.27500	-3430
5.28333	-3430
5.29167	-3430
5.30000	-3430
5.30833	-3431
5.31667	-3432
5.32500	-3432
5.33333	-3431
5.34167	-3432
5.35000	-3432
5.35833	-3432
5.36667	-3433
5.37500	-3433
5.38333	-3433
5.39167	-3432
5.40000	-3431
5.40833	-3428
5.41667	-3427
5.42500	-3428
5.43333	-3428
5.44167	-3429
5.45000	-3428
5.45833	-3426
5.46667	-3426
5.47500	-3427
5.48333	-3426
5.49167	-3425
5.50000	-3423
5.50833	-3424
5.51667	-3424
5.52500	-3422
5.53333	-3422
5.54167	-3421
5.55000	-3421
5.55833	-3419
5.56667	-3418
5.57500	-3417
5.58333	-3415
5.59167	-3413
5.60000	-3411
5.60833	-3410
5.61667	-3409
5.62500	-3408
5.63333	-3406
5.64167	-3402
5.65000	-3400
5.65833	-3398
5.66667	-3395
5.67500	-3391
5.68333	-3389
5.69167	-3387
5.70000	-3384
5.70833	-3380
5.71667	-3379
5.72500	-3378
5.73333	-3375
5.74167	-3371
5.75000	-3366
5.75833	-3363
5.76667	-3360
5.77500	-3357
5.78333	-3352
5.79167	-3347
5.80000	-3343
5.80833	-3339
5.81667	-3333
5.82500	-3327
5.83333	-3324
5.84167	-3320
5.85000	-3316
5.85833	-3309
5.86667	-3303
5.87500	-3298
5.88333	-3294
5.89167	-3289
5.90000	-3284
5.90833	-3279
5.91667	-3273
5.92500	-3265
5.93333	-3258
5.94167	-3253
5.95000	-3246
5.95833	-3238
5.96667	-3231
5.97500	-3224
5.98333	-3216
5.99167	-3207
6.00000	-3194

[LC Status Trace(Pump A Pressure)]
Interval(msec)	1000
# of Points	361
Start Time(min)	0.000
End Time(min)	6.000
Intensity Units	kgf/cm2
Intensity Multiplier	1
R.Time (min)	Intensity
0.00000	141.0
0.01667	141.0
0.03333	140.9
0.05000	141.1
0.06667	141.4
0.08333	141.9
0.10000	141.8
0.11667	142.0
0.13333	142.2
0.15000	141.8
0.16667	142.0
0.18333	142.0
0.20000	141.5
0.21667	141.5
0.23333	141.5
0.25000	141.5
0.26667	141.5
0.28333	141.3
0.30000	140.9
0.31667	140.9
0.33333	141.0
0.35000	140.6
0.36667	140.7
0.38333	140.2
0.40000	140.2
0.41667	140.2
0.43333	139.8
0.45000	139.8
0.46667	139.4
0.48333	139.3
0.50000	139.3
0.51667	138.8
0.53333	138.7
0.55000	138.7
0.56667	138.4
0.58333	138.5
0.60000	137.9
0.61667	137.9
0.63333	138.0
0.65000	137.2
0.66667	137.4
0.68333	137.4
0.70000	136.8
0.71667	136.8
0.73333	136.7
0.75000	136.2
0.76667	136.2
0.78333	135.8
0.80000	135.7
0.81667	135.7
0.83333	135.1
0.85000	135.0
0.86667	135.1
0.88333	134.6
0.90000	134.6
0.91667	134.5
0.93333	134.1
0.95000	133.9
0.96667	133.9
0.98333	133.5
1.00000	133.3
1.01667	132.8
1.03333	132.7
1.05000	132.8
1.06667	132.3
1.08333	132.3
1.10000	131.6
1.11667	131.8
1.13333	131.5
1.15000	131.1
1.16667	131.1
1.18333	131.0
1.20000	130.6
1.21667	130.7
1.23333	130.3
1.25000	129.9
1.26667	129.9
1.28333	129.8
1.30000	129.7
1.31667	129.4
1.33333	129.4
1.35000	129.0
1.36667	129.0
1.38333	128.8
1.40000	128.6
1.41667	128.5
1.43333	128.3
1.45000	127.9
1.46667	128.1
1.48333	127.6
1.50000	127.7
1.51667	127.7
1.53333	127.4
1.55000	127.4
1.56667	127.4
1.58333	127.2
1.60000	127.2
1.61667	127.2
1.63333	127.1
1.65000	127.1
1.66667	127.0
1.68333	126.8
1.70000	127.0
1.71667	126.7
1.73333	126.8
1.75000	126.7
1.76667	126.8
1.78333	127.0
1.80000	126.8
1.81667	127.2
1.83333	127.2
1.85000	127.1
1.86667	127.4
1.88333	127.4
1.90000	127.2
1.91667	127.6
1.93333	127.6
1.95000	127.6
1.96667	127.7
1.98333	127.7
2.00000	127.7
2.01667	127.9
2.03333	127.9
2.05000	128.0
2.06667	128.0
2.08333	128.0
2.10000	128.5
2.11667	128.3
2.13333	128.4
2.15000	128.6
2.16667	128.4
2.18333	128.4
2.20000	128.8
2.21667	128.4
2.23333	128.6
2.25000	128.9
2.26667	128.9
2.28333	128.8
2.30000	129.0
2.31667	128.8
2.33333	129.0
2.35000	128.8
2.36667	129.0
2.38333	129.3
2.40000	129.2
2.41667	129.2
2.43333	129.2
2.45000	129.3
2.46667	129.3
2.48333	129.4
2.50000	129.6
2.51667	129.7
2.53333	129.4
2.55000	129.6
2.56667	129.6
2.58333	129.6
2.60000	129.8
2.61667	129.9
2.63333	129.7
2.65000	130.1
2.66667	129.7
2.68333	129.9
2.70000	130.2
2.71667	129.9
2.73333	130.1
2.75000	130.1
2.76667	130.1
2.78333	129.9
2.80000	130.3
2.81667	130.3
2.83333	130.3
2.85000	130.2
2.86667	130.5
2.88333	130.6
2.90000	130.3
2.91667	130.7
2.93333	130.9
2.95000	130.6
2.96667	130.9
2.98333	130.6
3.00000	130.9
3.01667	131.1
3.03333	130.9
3.05000	130.7
3.06667	131.0
3.08333	131.0
3.10000	131.0
3.11667	131.1
3.13333	131.1
3.15000	131.1
3.16667	130.9
3.18333	131.1
3.20000	131.2
3.21667	131.2
3.23333	131.1
3.25000	131.2
3.26667	131.1
3.28333	131.4
3.30000	131.5
3.31667	131.5
3.33333	131.4
3.35000	131.4
3.36667	131.5
3.38333	131.8
3.40000	131.5
3.41667	131.5
3.43333	131.9
3.45000	131.5
3.46667	131.6
3.48333	131.5
3.50000	131.6
3.51667	131.8
3.53333	131.5
3.55000	131.8
3.56667	131.9
3.58333	131.8
3.60000	131.9
3.61667	132.2
3.63333	131.8
3.65000	132.0
3.66667	131.8
3.68333	132.0
3.70000	132.2
3.71667	131.9
3.73333	131.9
3.75000	132.0
3.76667	131.9
3.78333	132.2
3.80000	131.9
3.81667	132.0
3.83333	132.3
3.85000	132.2
3.86667	132.2
3.88333	132.3
3.90000	132.3
3.91667	132.3
3.93333	132.5
3.95000	132.3
3.96667	132.4
3.98333	132.5
4.00000	132.5
4.01667	132.7
4.03333	132.4
4.05000	132.7
4.06667	132.8
4.08333	132.5
4.10000	132.8
4.11667	132.9
4.13333	132.9
4.15000	133.1
4.16667	133.1
4.18333	132.7
4.20000	133.2
4.21667	133.2
4.23333	132.9
4.25000	133.2
4.26667	133.5
4.28333	133.3
4.30000	133.6
4.31667	133.6
4.33333	133.6
4.35000	133.6
4.36667	133.7
4.38333	134.1
4.40000	134.0
4.41667	134.0
4.43333	134.2
4.45000	134.1
4.46667	134.2
4.48333	134.5
4.50000	134.6
4.51667	134.6
4.53333	134.4
4.55000	134.8
4.56667	134.8
4.58333	134.9
4.60000	135.3
4.61667	135.4
4.63333	135.4
4.65000	135.7
4.66667	135.8
4.68333	135.8
4.70000	136.2
4.71667	135.9
4.73333	135.9
4.75000	136.4
4.76667	136.4
4.78333	136.7
4.80000	136.8
4.81667	136.6
4.83333	137.1
4.85000	137.1
4.86667	137.2
4.88333	137.6
4.90000	137.5
4.91667	137.6
4.93333	138.0
4.95000	138.1
4.96667	138.0
4.98333	138.4
5.00000	138.5
5.01667	138.4
5.03333	138.4
5.05000	138.9
5.06667	139.0
5.08333	139.0
5.10000	139.0
5.11667	139.4
5.13333	139.3
5.15000	139.8
5.16667	139.8
5.18333	139.8
5.20000	140.0
5.21667	140.0
5.23333	140.2
5.25000	140.4
5.26667	140.7
5.28333	140.7
5.30000	141.0
5.31667	141.0
5.33333	141.3
5.35000	141.4
5.36667	141.5
5.38333	142.0
5.40000	141.8
5.41667	142.3
5.43333	142.7
5.45000	142.6
5.46667	142.7
5.48333	143.2
5.50000	143.2
5.51667	143.5
5.53333	143.7
5.55000	144.0
5.56667	144.0
5.58333	144.0
5.60000	144.5
5.61667	144.6
5.63333	144.8
5.65000	145.2
5.66667	145.3
5.68333	145.4
5.70000	145.8
5.71667	146.1
5.73333	146.2
5.75000	146.5
5.76667	146.2
5.78333	146.7
5.80000	147.0
5.81667	146.6
5.83333	147.1
5.85000	147.2
5.86667	147.4
5.88333	147.6
5.90000	147.6
5.91667	147.9
5.93333	148.3
5.95000	148.3
5.96667	148.3
5.98333	148.5
6.00000	148.7

[LC Status Trace(UV Cell Temp.)]
Interval(msec)	1000
# of Points	361
Start Time(min)	0.000
End Time(min)	6.000
Intensity Units	C
Intensity Multiplier	1
R.Time (min)	Intensity
0.00000	39.98
0.01667	39.98
0.03333	39.96
0.05000	39.98
0.06667	40.00
0.08333	40.00
0.10000	40.00
0.11667	40.00
0.13333	39.95
0.15000	39.99
0.16667	40.00
0.18333	40.00
0.20000	40.02
0.21667	40.00
0.23333	39.97
0.25000	40.00
0.26667	40.00
0.28333	39.99
0.30000	40.00
0.31667	40.02
0.33333	40.00
0.35000	39.99
0.36667	40.00
0.38333	39.99
0.40000	39.97
0.41667	39.97
0.43333	39.99
0.45000	40.00
0.46667	39.99
0.48333	40.00
0.50000	40.00
0.51667	40.02
0.53333	40.05
0.55000	40.06
0.56667	40.03
0.58333	40.00
0.60000	40.03
0.61667	40.03
0.63333	40.00
0.65000	40.00
0.66667	40.00
0.68333	39.99
0.70000	40.00
0.71667	39.99
0.73333	39.99
0.75000	40.00
0.76667	40.00
0.78333	40.00
0.80000	40.00
0.81667	39.99
0.83333	39.98
0.85000	40.00
0.86667	40.00
0.88333	40.00
0.90000	40.05
0.91667	40.03
0.93333	40.00
0.95000	39.99
0.96667	39.98
0.98333	40.00
1.00000	40.03
1.01667	40.03
1.03333	40.02
1.05000	40.02
1.06667	40.00
1.08333	40.02
1.10000	40.00
1.11667	40.00
1.13333	40.05
1.15000	40.02
1.16667	40.00
1.18333	40.02
1.20000	40.02
1.21667	40.02
1.23333	40.05
1.25000	40.00
1.26667	40.00
1.28333	40.00
1.30000	40.00
1.31667	40.00
1.33333	39.99
1.35000	40.02
1.36667	40.00
1.38333	39.99
1.40000	39.98
1.41667	40.00
1.43333	40.00
1.45000	40.00
1.46667	40.02
1.48333	39.98
1.50000	40.00
1.51667	39.99
1.53333	39.99
1.55000	40.00
1.56667	40.00
1.58333	39.98
1.60000	40.00
1.61667	40.00
1.63333	39.99
1.65000	39.97
1.66667	39.96
1.68333	40.00
1.70000	40.00
1.71667	39.99
1.73333	39.99
1.75000	40.02
1.76667	40.03
1.78333	40.00
1.80000	39.99
1.81667	39.98
1.83333	39.98
1.85000	39.97
1.86667	39.99
1.88333	40.00
1.90000	40.00
1.91667	40.03
1.93333	39.97
1.95000	39.95
1.96667	40.00
1.98333	40.00
2.00000	39.98
2.01667	40.00
2.03333	40.03
2.05000	40.00
2.06667	40.00
2.08333	40.02
2.10000	40.02
2.11667	40.00
2.13333	40.00
2.15000	40.00
2.16667	40.02
2.18333	39.99
2.20000	39.99
2.21667	40.00
2.23333	40.00
2.25000	40.02
2.26667	40.03
2.28333	40.00
2.30000	39.99
2.31667	40.00
2.33333	39.99
2.35000	40.00
2.36667	40.03
2.38333	40.00
2.40000	40.03
2.41667	40.03
2.43333	40.02
2.45000	40.05
2.46667	40.00
2.48333	40.00
2.50000	40.00
2.51667	40.00
2.53333	40.00
2.55000	40.03
2.56667	40.00
2.58333	40.00
2.60000	40.00
2.61667	39.99
2.63333	39.99
2.65000	40.00
2.66667	39.97
2.68333	39.99
2.70000	40.00
2.71667	40.00
2.73333	40.00
2.75000	40.00
2.76667	39.99
2.78333	40.05
2.80000	40.00
2.81667	40.00
2.83333	40.02
2.85000	40.02
2.86667	40.00
2.88333	40.00
2.90000	40.00
2.91667	40.00
2.93333	39.99
2.95000	39.97
2.96667	39.95
2.98333	39.96
3.00000	40.00
3.01667	39.99
3.03333	39.99
3.05000	39.99
3.06667	40.00
3.08333	39.98
3.10000	39.98
3.11667	40.00
3.13333	40.00
3.15000	40.00
3.16667	40.02
3.18333	40.03
3.20000	40.00
3.21667	40.00
3.23333	39.99
3.25000	39.93
3.26667	39.93
3.28333	40.00
3.30000	40.02
3.31667	39.99
3.33333	40.00
3.35000	40.03
3.36667	40.00
3.38333	40.00
3.40000	40.00
3.41667	40.00
3.43333	40.03
3.45000	40.02
3.46667	40.00
3.48333	39.99
3.50000	39.99
3.51667	39.99
3.53333	39.98
3.55000	40.00
3.56667	40.00
3.58333	39.97
3.60000	39.91
3.61667	39.91
3.63333	39.93
3.65000	39.93
3.66667	39.93
3.68333	39.99
3.70000	40.00
3.71667	40.00
3.73333	39.99
3.75000	40.00
3.76667	40.03
3.78333	40.00
3.80000	40.00
3.81667	39.99
3.83333	40.00
3.85000	40.00
3.86667	39.99
3.88333	39.91
3.90000	39.93
3.91667	39.99
3.93333	40.00
3.95000	39.99
3.96667	40.00
3.98333	39.99
4.00000	40.00
4.01667	40.00
4.03333	39.99
4.05000	39.99
4.06667	40.00
4.08333	40.02
4.10000	40.00
4.11667	40.00
4.13333	39.99
4.15000	40.00
4.16667	40.00
4.18333	40.00
4.20000	40.00
4.21667	40.00
4.23333	39.99
4.25000	40.00
4.26667	40.00
4.28333	40.00
4.30000	40.00
4.31667	40.00
4.33333	39.99
4.35000	40.02
4.36667	40.00
4.38333	40.00
4.40000	40.00
4.41667	40.02
4.43333	40.00
4.45000	40.00
4.46667	40.00
4.48333	40.00
4.50000	39.96
4.51667	39.95
4.53333	39.99
4.55000	40.00
4.56667	40.00
4.58333	40.00
4.60000	40.00
4.61667	39.99
4.63333	40.00
4.65000	40.00
4.66667	39.98
4.68333	39.91
4.70000	39.97
4.71667	40.00
4.73333	40.00
4.75000	40.00
4.76667	40.00
4.78333	40.00
4.80000	40.02
4.81667	40.02
4.83333	40.00
4.85000	39.99
4.86667	40.00
4.88333	40.02
4.90000	40.03
4.91667	40.02
4.93333	40.00
4.95000	39.98
4.96667	39.93
4.98333	39.98
5.00000	40.00
5.01667	40.00
5.03333	40.00
5.05000	40.00
5.06667	39.97
5.08333	39.95
5.10000	40.00
5.11667	40.02
5.13333	40.00
5.15000	40.00
5.16667	40.00
5.18333	39.97
5.20000	39.99
5.21667	40.00
5.23333	40.00
5.25000	40.00
5.26667	40.00
5.28333	40.00
5.30000	40.00
5.31667	40.00
5.33333	40.00
5.35000	39.99
5.36667	39.99
5.38333	40.00
5.40000	40.00
5.41667	40.00
5.43333	40.02
5.45000	40.05
5.46667	40.00
5.48333	40.00
5.50000	40.00
5.51667	40.00
5.53333	40.03
5.55000	40.00
5.56667	40.02
5.58333	40.05
5.60000	40.00
5.61667	39.93
5.63333	39.95
5.65000	39.97
5.66667	40.03
5.68333	40.00
5.70000	40.00
5.71667	40.00
5.73333	40.00
5.75000	40.00
5.76667	40.00
5.78333	40.02
5.80000	40.00
5.81667	39.99
5.83333	39.99
5.85000	39.99
5.86667	40.00
5.88333	40.00
5.90000	40.00
5.91667	40.00
5.93333	40.00
5.95000	40.00
5.96667	39.99
5.98333	40.00
6.00000	40.00

[Fraction Collection Report]
# of Fractions	0

